timestamp,sensor_1,sensor_2
1699566604.758153,1830.77,1818.45
1699566604.8255818,1814.60,1799.63
1699566604.898114,1833.77,1799.79
1699566604.974777,1839.14,1820.31
1699566605.0473952,1814.94,1800.83
1699566605.1191058,1832.70,1818.78
1699566605.191424,1815.34,1796.91
1699566605.2609932,1838.30,1799.19
1699566605.3352404,1830.73,1817.34
1699566605.4075692,1808.65,1799.88
1699566605.4794333,1831.88,1816.30
1699566605.5512075,1817.54,1797.57
1699566605.6230795,1836.17,1798.63
1699566605.6949635,1830.37,1818.68
1699566605.7683551,1813.54,1799.14
1699566605.8393908,1839.39,1815.35
1699566605.911269,1819.34,1801.29
1699566605.9832492,1834.23,1800.50
1699566606.0553262,1832.79,1819.72
1699566606.1260915,1818.84,1806.53
1699566606.2002099,1840.27,1812.37
1699566606.2707682,1811.90,1800.53
1699566606.34266,1830.44,1801.99
1699566606.4148798,1835.16,1819.31
1699566606.4881153,1815.09,1799.78
1699566606.5588918,1829.72,1818.59
1699566606.6310496,1816.80,1801.38
1699566606.703893,1832.97,1796.48
1699566606.775003,1832.28,1818.52
1699566606.8474152,1816.72,1797.97
1699566606.9187136,1833.58,1807.09
1699566606.9908526,1813.15,1800.02
1699566607.0628166,1837.09,1800.39
1699566607.1366518,1834.73,1816.55
1699566607.2066822,1819.32,1800.98
1699566607.2784996,1834.70,1808.03
1699566607.3511157,1813.95,1799.12
1699566607.4231575,1834.83,1800.05
1699566607.4952922,1839.01,1818.74
1699566607.5679524,1819.65,1799.07
1699566607.6386313,1837.06,1806.62
1699566607.7106073,1818.45,1796.81
1699566607.7832587,1838.90,1798.16
1699566607.8551304,1832.91,1819.07
1699566607.9260662,1813.18,1798.42
1699566607.9989545,1835.78,1808.23
1699566608.0706923,1815.28,1795.76
1699566608.1426957,1832.78,1797.84
1699566608.2148745,1830.45,1818.14
1699566608.2874875,1813.15,1797.16
1699566608.3591402,1834.70,1803.21
1699566608.4306583,1813.52,1798.96
1699566608.504856,1834.93,1800.23
1699566608.5747478,1836.80,1821.32
1699566608.6466286,1820.10,1801.34
1699566608.7204602,1839.08,1801.28
1699566608.7907102,1816.70,1797.42
1699566608.8630655,1831.73,1799.32
1699566608.9364262,1838.20,1817.94
1699566609.0072258,1814.42,1800.76
1699566609.079019,1830.82,1803.93
1699566609.1521914,1813.35,1799.32
1699566609.2229822,1835.34,1799.51
1699566609.2950034,1835.64,1820.83
1699566609.368646,1815.45,1798.57
1699566609.4394157,1831.84,1801.98
1699566609.5109236,1819.99,1796.76
1699566609.582717,1835.34,1799.10
1699566609.65616,1831.06,1823.01
1699566609.7260334,1814.53,1797.74
1699566609.7991154,1835.00,1799.04
1699566609.8718112,1814.91,1796.53
1699566609.9429595,1833.93,1799.92
1699566610.014721,1834.79,1821.69
1699566610.0873802,1813.01,1799.88
1699566610.15927,1840.42,1796.66
1699566610.2306824,1816.82,1797.45
1699566610.3030674,1835.04,1800.66
1699566610.3743472,1836.80,1818.33
1699566610.44682,1811.78,1798.50
1699566610.519531,1835.25,1797.74
1699566610.591563,1811.26,1799.11
1699566610.6630416,1833.90,1800.34
1699566610.7364607,1833.17,1819.07
1699566610.8070488,1818.38,1798.89
1699566610.8786833,1832.68,1795.71
1699566610.9514532,1818.11,1797.16
1699566611.0225477,1837.67,1800.97
1699566611.095087,1834.14,1816.39
1699566611.1669834,1812.12,1798.22
1699566611.2384763,1840.25,1804.04
1699566611.310944,1817.04,1798.08
1699566611.3826218,1837.00,1798.54
1699566611.4550812,1831.48,1818.58
1699566611.527547,1814.54,1798.06
1699566611.5987449,1836.97,1794.52
1699566611.6726549,1817.35,1800.09
1699566611.7432146,1838.30,1802.59
1699566611.8148618,1833.45,1817.99
1699566611.8873117,1813.63,1799.46
1699566611.9592721,1831.57,1801.72
1699566612.0311384,1815.01,1796.04
1699566612.1047676,1835.23,1798.89
1699566612.1747425,1833.85,1817.72
1699566612.2472346,1812.25,1797.90
1699566612.3207777,1835.07,1796.93
1699566612.391326,1812.88,1797.00
1699566612.4630375,1838.50,1800.18
1699566612.5346253,1836.94,1821.70
1699566612.6081398,1816.07,1799.54
1699566612.6789088,1832.27,1799.96
1699566612.7513566,1813.90,1801.52
1699566612.8240168,1835.77,1800.06
1699566612.8950293,1832.52,1818.90
1699566612.9667466,1818.17,1800.60
1699566613.039282,1837.59,1798.27
1699566613.1110487,1815.70,1796.48
1699566613.182657,1837.45,1800.82
1699566613.2552364,1840.01,1819.19
1699566613.3262885,1814.76,1798.11
1699566613.399499,1832.67,1799.86
1699566613.4721315,1816.77,1798.15
1699566613.5428004,1837.76,1795.63
1699566613.6153486,1834.73,1819.80
1699566613.6869228,1812.74,1799.69
1699566613.759066,1832.89,1795.50
1699566613.8305728,1813.83,1798.00
1699566613.9048824,1837.40,1798.84
1699566613.9774244,1835.49,1820.83
1699566614.0473313,1816.02,1799.69
1699566614.1191514,1828.55,1798.97
1699566614.190859,1815.71,1795.63
1699566614.2627656,1835.39,1800.02
1699566614.335118,1832.55,1820.69
1699566614.4074366,1816.46,1798.07
1699566614.4788601,1835.21,1799.80
1699566614.5506752,1816.78,1799.36
1699566614.624554,1833.42,1801.46
1699566614.694961,1828.64,1817.57
1699566614.7669165,1815.73,1798.89
1699566614.8411057,1835.93,1798.37
1699566614.9112663,1819.56,1796.75
1699566614.9825063,1832.31,1801.44
1699566615.0553324,1832.94,1820.43
1699566615.1274545,1812.04,1798.27
1699566615.1987615,1836.13,1803.47
1699566615.2712471,1815.77,1798.15
1699566615.3426764,1832.66,1797.41
1699566615.4152436,1832.10,1820.62
1699566615.4864845,1818.34,1799.12
1699566615.5595846,1836.01,1805.02
1699566615.6311233,1818.53,1798.14
1699566615.7031343,1837.66,1798.57
1699566615.7758403,1834.52,1818.52
1699566615.8474364,1817.53,1800.86
1699566615.9194913,1830.53,1802.84
1699566615.991369,1819.24,1799.50
1699566616.062892,1832.18,1799.24
1699566616.1347914,1836.73,1816.55
1699566616.2083418,1814.50,1799.38
1699566616.2796702,1834.02,1805.16
1699566616.3509033,1814.22,1799.89
1699566616.4234157,1837.87,1801.36
1699566616.495445,1833.37,1819.68
1699566616.5666707,1814.95,1797.85
1699566616.638828,1829.22,1803.54
1699566616.7115958,1815.59,1795.91
1699566616.7825816,1831.26,1801.39
1699566616.8564892,1831.48,1820.43
1699566616.927595,1819.09,1801.96
1699566616.9984546,1835.61,1801.93
1699566617.0709417,1819.14,1799.99
1699566617.1425834,1834.59,1799.27
1699566617.2146602,1833.45,1825.53
1699566617.286422,1817.12,1798.88
1699566617.3592741,1839.19,1813.15
1699566617.431083,1821.17,1796.97
1699566617.5032437,1832.56,1798.06
1699566617.576138,1831.14,1822.09
1699566617.647309,1813.27,1798.53
1699566617.7191908,1834.73,1806.71
1699566617.7915432,1816.54,1797.38
1699566617.8637743,1834.83,1801.76
1699566617.9344366,1841.59,1822.91
1699566618.0070107,1817.53,1800.91
1699566618.078388,1834.73,1814.70
1699566618.1514375,1816.40,1797.33
1699566618.2227364,1830.50,1796.84
1699566618.2949774,1834.14,1818.94
1699566618.3669908,1819.69,1801.64
1699566618.439051,1829.25,1809.97
1699566618.5108385,1811.62,1796.92
1699566618.5824344,1833.91,1796.28
1699566618.65511,1836.63,1817.01
1699566618.7275858,1816.19,1799.67
1699566618.7991693,1829.53,1813.78
1699566618.8703885,1821.70,1794.70
1699566618.945191,1836.14,1800.55
1699566619.0149398,1832.32,1817.01
1699566619.0870512,1818.12,1799.95
1699566619.1597142,1837.22,1810.68
1699566619.2309732,1820.88,1800.64
1699566619.3032343,1837.05,1795.92
1699566619.3754416,1829.32,1814.87
1699566619.4466584,1814.19,1797.03
1699566619.5181663,1831.53,1803.42
1699566619.5926712,1820.76,1796.05
1699566619.662775,1845.10,1798.41
1699566619.7348201,1853.65,1818.33
1699566619.8073423,1837.70,1801.00
1699566619.8794165,1855.99,1809.09
1699566619.9512167,1830.44,1798.80
1699566620.022437,1848.74,1800.33
1699566620.0949385,1833.53,1822.49
1699566620.166982,1812.62,1803.17
1699566620.238732,1831.29,1812.02
1699566620.3109255,1817.00,1799.97
1699566620.3832128,1829.67,1800.90
1699566620.4553201,1833.31,1826.92
1699566620.5273137,1821.37,1801.83
1699566620.598403,1831.76,1810.26
1699566620.67169,1820.46,1799.91
1699566620.7427914,1526.90,1802.12
1699566620.8151698,1591.58,1820.69
1699566620.8867772,1584.74,1801.87
1699566620.9590423,1746.68,1818.63
1699566621.0310433,1798.14,1800.57
1699566621.1026418,1805.24,1803.51
1699566621.1751306,1836.29,1821.99
1699566621.2466767,1816.10,1800.99
1699566621.3186893,1831.60,1811.63
1699566621.3905773,1813.97,1804.18
1699566621.4630914,1838.25,1801.13
1699566621.534432,1840.34,1821.47
1699566621.6065059,1819.28,1801.10
1699566621.6817029,1839.11,1815.13
1699566621.7508924,1819.35,1803.06
1699566621.8229227,1839.42,1803.54
1699566621.8952658,1830.03,1824.87
1699566621.9668562,1815.02,1804.68
1699566622.038835,1835.79,1814.18
1699566622.1110518,1827.96,1803.63
1699566622.1828218,1821.30,1802.93
1699566622.2546427,1838.89,1821.45
1699566622.328466,1821.70,1805.34
1699566622.3992288,1840.89,1817.78
1699566622.4711242,1818.39,1803.30
1699566622.5432277,1840.01,1802.50
1699566622.6150904,1850.01,1822.23
1699566622.6864512,1830.61,1806.23
1699566622.7592773,1823.47,1814.32
1699566622.8302705,1861.03,1801.63
1699566622.9027958,1877.77,1802.86
1699566622.974659,1903.79,1821.15
1699566623.0481403,1834.32,1801.58
1699566623.1189852,1853.44,1815.99
1699566623.19127,1843.68,1801.02
1699566623.2646978,1832.47,1801.40
1699566623.3351755,1924.96,1823.89
1699566623.4074025,1835.26,1803.12
1699566623.4791603,1858.87,1821.18
1699566623.550949,1899.61,1803.93
1699566623.6229055,1814.44,1801.75
1699566623.6950355,1848.53,1822.77
1699566623.7670953,1834.15,1803.98
1699566623.8390825,1763.24,1820.78
1699566623.9111373,1848.17,1803.29
1699566623.982981,1822.01,1805.51
1699566624.0551672,1868.89,1820.43
1699566624.1288638,1501.62,1799.33
1699566624.1991408,1657.88,1821.71
1699566624.2709668,1709.37,1800.46
1699566624.342849,1849.19,1805.95
1699566624.4157875,1854.65,1819.37
1699566624.4877791,1820.09,1798.53
1699566624.5590453,1847.37,1817.78
1699566624.6310635,1387.83,1796.73
1699566624.7027175,1598.64,1798.30
1699566624.7755456,1493.16,1818.74
1699566624.847893,1772.15,1799.40
1699566624.918698,1843.86,1818.51
1699566624.9910216,1824.99,1799.01
1699566625.0657449,1843.11,1800.85
1699566625.13535,1574.83,1814.92
1699566625.2068834,1269.49,1796.50
1699566625.2801137,806.70,1817.64
1699566625.3505087,722.61,1798.21
1699566625.4228475,1260.21,1799.81
1699566625.494952,1708.51,1819.57
1699566625.5676231,1634.88,1797.91
1699566625.6389565,1761.87,1817.89
1699566625.7110033,1803.06,1799.38
1699566625.7836287,1767.95,1798.55
1699566625.855026,1753.64,1817.48
1699566625.9268212,1703.13,1798.21
1699566625.9990501,1701.75,1819.40
1699566626.0705276,1677.01,1800.96
1699566626.1424363,1826.81,1799.24
1699566626.2148879,1719.65,1819.66
1699566626.287145,1697.49,1800.05
1699566626.3594406,1742.68,1822.93
1699566626.4313474,1735.09,1798.16
1699566626.5023675,1429.64,1799.42
1699566626.5746012,1444.99,1817.96
1699566626.6490068,1388.84,1801.43
1699566626.7190003,1365.82,1820.02
1699566626.7912781,1281.32,1798.89
1699566626.8629463,1161.73,1801.44
1699566626.934998,1222.38,1821.75
1699566627.00643,1185.16,1799.73
1699566627.078783,1325.39,1823.72
1699566627.1516182,1328.15,1798.33
1699566627.2228284,1248.00,1801.49
1699566627.2952027,1312.35,1820.91
1699566627.3675132,1284.38,1799.41
1699566627.4391747,1353.71,1822.31
1699566627.5106912,1329.98,1798.93
1699566627.583647,1249.06,1795.46
1699566627.654576,1258.18,1817.15
1699566627.727361,1229.64,1795.28
1699566627.7998528,1302.71,1818.16
1699566627.8711889,1293.34,1801.63
1699566627.9428723,1221.92,1796.59
1699566628.015749,1247.38,1816.67
1699566628.0865636,1224.53,1796.77
1699566628.159356,1287.02,1815.06
1699566628.2339804,1278.94,1797.13
1699566628.3031137,1199.34,1798.95
1699566628.3748236,1235.25,1816.65
1699566628.446575,1213.27,1797.65
1699566628.5187583,1277.71,1818.52
1699566628.5906413,1274.63,1796.41
1699566628.6629841,1191.08,1798.51
1699566628.7350607,1225.53,1817.66
1699566628.8064222,1217.83,1799.69
1699566628.878727,1278.80,1818.83
1699566628.9517136,1255.55,1794.41
1699566629.0225976,1181.96,1795.78
1699566629.0951996,1165.81,1817.15
1699566629.1681104,1177.08,1798.09
1699566629.2387614,1307.41,1820.35
1699566629.310978,1594.23,1798.88
1699566629.3851817,1569.78,1797.14
1699566629.4551191,1658.60,1816.86
1699566629.5264182,1702.34,1798.32
1699566629.5984886,1751.02,1815.60
1699566629.6707397,1456.04,1797.36
1699566629.742453,1175.69,1794.11
1699566629.8148472,1138.28,1818.63
1699566629.8872802,1081.98,1796.82
1699566629.9586158,1122.46,1819.32
1699566630.030461,1125.47,1797.23
1699566630.1035147,1051.08,1796.90
1699566630.1744237,1062.76,1819.11
1699566630.246699,1051.03,1797.82
1699566630.319984,1128.12,1819.44
1699566630.390799,1115.83,1797.49
1699566630.4632535,1044.86,1800.02
1699566630.536189,1059.29,1820.30
1699566630.6070206,1048.64,1797.28
1699566630.679377,1121.18,1818.55
1699566630.752369,1113.24,1800.11
1699566630.8227584,1024.36,1798.12
1699566630.8949375,1045.50,1814.81
1699566630.967996,1047.36,1796.25
1699566631.0388641,1120.77,1818.74
1699566631.1116142,1115.86,1798.14
1699566631.1834037,1032.67,1797.16
1699566631.254715,1045.64,1814.57
1699566631.3258672,1029.71,1798.06
1699566631.3992968,1117.75,1818.20
1699566631.4707718,1093.47,1797.09
1699566631.5425994,1033.55,1795.84
1699566631.6163957,1037.54,1817.44
1699566631.6873107,1033.88,1796.48
1699566631.7592323,1101.59,1818.10
1699566631.8306417,1099.56,1799.88
1699566631.9034,1019.32,1797.77
1699566631.974884,1010.65,1817.69
1699566632.0472362,1017.19,1796.86
1699566632.1186748,1078.70,1817.05
1699566632.1909587,1088.57,1798.75
1699566632.2628527,1019.74,1797.61
1699566632.3362644,1017.66,1817.21
1699566632.4069943,1122.77,1798.26
1699566632.478817,1163.89,1816.46
1699566632.552447,1263.98,1797.73
1699566632.6227,1262.82,1798.52
1699566632.6953561,1676.55,1816.99
1699566632.7671459,1563.57,1795.81
1699566632.839248,1264.34,1814.83
1699566632.9108357,1199.46,1796.69
1699566632.9834867,1082.47,1794.91
1699566633.0552058,999.17,1819.37
1699566633.126466,973.41,1799.92
1699566633.199258,1044.97,1818.12
1699566633.2718058,1038.27,1798.08
1699566633.343206,960.71,1795.16
1699566633.4152758,973.17,1817.92
1699566633.4873497,964.72,1795.81
1699566633.558332,1059.34,1820.03
1699566633.6304348,1050.88,1797.10
1699566633.7044094,964.04,1796.34
1699566633.7750409,975.84,1817.15
1699566633.8473756,964.28,1797.08
1699566633.9191084,1027.13,1816.19
1699566633.9907563,1040.17,1798.22
1699566634.06287,965.11,1799.79
1699566634.1364558,968.51,1816.28
1699566634.207285,963.35,1798.15
1699566634.2787373,1034.79,1814.65
1699566634.350761,1017.16,1795.36
1699566634.4231026,959.44,1796.90
1699566634.4954045,956.73,1818.62
1699566634.566668,970.05,1796.21
1699566634.6392953,1026.31,1818.34
1699566634.710846,1013.00,1802.38
1699566634.7824292,952.26,1797.52
1699566634.8565538,951.62,1816.65
1699566634.9271944,948.98,1798.26
1699566634.9990325,1017.53,1819.91
1699566635.0712,926.18,1797.81
1699566635.1430302,1009.62,1797.91
1699566635.21468,1212.12,1817.20
1699566635.2886937,1152.87,1801.83
1699566635.359399,1767.26,1815.95
1699566635.431135,1616.55,1799.56
1699566635.5054662,1651.14,1799.38
1699566635.5752268,1620.50,1818.75
1699566635.6466973,1758.92,1798.79
1699566635.7204027,1723.45,1819.66
1699566635.7911406,1135.94,1800.08
1699566635.8627708,897.26,1798.60
1699566635.9347572,876.66,1817.50
1699566636.007059,857.07,1797.74
1699566636.0788033,898.22,1818.41
1699566636.1512575,909.62,1799.04
1699566636.2228754,858.07,1795.52
1699566636.295138,866.18,1817.99
1699566636.3668978,870.49,1798.30
1699566636.439139,920.73,1818.16
1699566636.5105026,939.20,1798.55
1699566636.5829735,870.74,1800.68
1699566636.6560733,859.51,1817.53
1699566636.725931,868.56,1798.01
1699566636.799089,923.63,1817.66
1699566636.8718352,928.09,1795.86
1699566636.9429436,863.44,1798.40
1699566637.014738,867.97,1817.78
1699566637.0887644,871.40,1798.18
1699566637.1587698,931.55,1816.12
1699566637.2304716,925.76,1797.46
1699566637.3040826,867.69,1797.02
1699566637.3748813,863.78,1816.47
1699566637.4464264,984.75,1795.94
1699566637.5190082,1046.37,1816.74
1699566637.5906775,1050.85,1795.45
1699566637.662771,1124.74,1798.44
1699566637.735157,1691.25,1816.99
1699566637.8080175,1632.89,1795.79
1699566637.8793662,1445.60,1815.65
1699566637.9509542,1068.73,1795.73
1699566638.024058,985.63,1796.58
1699566638.0947087,917.87,1817.90
1699566638.166941,888.04,1797.19
1699566638.2405877,973.19,1814.55
1699566638.3106806,953.21,1793.96
1699566638.3828843,898.40,1800.47
1699566638.4567924,890.11,1817.29
1699566638.5274384,897.87,1796.24
1699566638.5992172,960.83,1820.59
1699566638.671055,961.44,1801.28
1699566638.742518,886.74,1796.92
1699566638.815226,899.46,1815.66
1699566638.8867779,880.86,1797.69
1699566638.9586751,953.61,1817.96
1699566639.0302935,931.05,1797.01
1699566639.1023924,875.08,1795.59
1699566639.175347,884.01,1816.54
1699566639.2470293,886.61,1799.30
1699566639.3186524,943.10,1815.99
1699566639.3917038,941.82,1797.07
1699566639.4631863,862.78,1798.78
1699566639.534708,865.03,1815.60
1699566639.608465,860.92,1796.47
1699566639.6784244,940.65,1818.27
1699566639.7505696,914.95,1796.62
1699566639.8238747,901.09,1797.74
1699566639.8949928,813.14,1814.93
1699566639.9671168,680.53,1798.55
1699566640.0387442,1053.87,1818.33
1699566640.1106987,1117.96,1799.34
1699566640.1832724,1155.82,1798.78
1699566640.256142,1663.71,1817.66
1699566640.327214,1657.58,1797.06
1699566640.3984296,1739.56,1817.21
1699566640.47229,1759.79,1799.78
1699566640.5424843,1742.61,1798.46
1699566640.6152258,1756.37,1816.81
1699566640.6873398,1737.88,1799.79
1699566640.7593625,706.37,1819.84
1699566640.8308053,744.07,1797.25
1699566640.903267,728.14,1799.00
1699566640.9746902,747.73,1818.31
1699566641.0473003,754.53,1798.14
1699566641.1187124,797.66,1821.28
1699566641.1919556,815.91,1798.32
1699566641.2632627,758.55,1801.23
1699566641.334535,772.84,1817.78
1699566641.4073436,771.38,1796.13
1699566641.4787025,819.16,1821.97
1699566641.550767,825.09,1800.17
1699566641.6237984,762.36,1797.52
1699566641.6952002,783.27,1821.14
1699566641.7668214,775.45,1798.52
1699566641.8387086,822.77,1817.54
1699566641.9108336,829.03,1797.56
1699566641.9836156,775.12,1799.77
1699566642.054775,782.50,1815.87
1699566642.1275928,778.68,1797.69
1699566642.1994293,817.18,1816.44
1699566642.270738,836.58,1794.58
1699566642.3426864,777.78,1798.20
1699566642.415239,787.17,1817.39
1699566642.4867973,780.43,1800.44
1699566642.5586474,811.35,1818.22
1699566642.6312666,825.98,1801.14
1699566642.702524,712.36,1794.97
1699566642.7759664,696.05,1818.86
1699566642.84731,867.68,1798.72
1699566642.918742,881.19,1819.65
1699566642.9929872,1435.27,1798.78
1699566643.0636213,1615.20,1798.02
1699566643.1347497,1631.90,1820.44
1699566643.2073355,1578.30,1799.13
1699566643.2786639,1624.86,1819.76
1699566643.3508105,1718.58,1797.96
1699566643.4240966,1724.44,1796.47
1699566643.4949825,1800.07,1815.88
1699566643.567338,695.61,1801.32
1699566643.638907,642.98,1819.07
1699566643.7107356,713.10,1799.24
1699566643.782652,684.44,1797.35
1699566643.8549151,704.28,1818.33
1699566643.9275062,706.79,1801.95
1699566643.9991412,730.08,1817.07
1699566644.07121,750.59,1800.12
1699566644.1433115,714.74,1798.15
1699566644.215026,726.97,1815.59
1699566644.287165,700.50,1799.41
1699566644.3598137,742.70,1817.27
1699566644.4307854,764.69,1799.28
1699566644.5027351,702.49,1801.03
1699566644.5748484,727.64,1818.89
1699566644.6471155,718.27,1801.20
1699566644.7189848,754.32,1821.68
1699566644.7907104,757.75,1799.30
1699566644.8634012,718.46,1796.57
1699566644.9343734,729.35,1819.07
1699566645.007321,721.94,1796.71
1699566645.078729,744.09,1819.36
1699566645.1511607,766.24,1800.46
1699566645.2229471,823.81,1799.95
1699566645.2953331,669.38,1819.04
1699566645.3667812,1105.97,1798.31
1699566645.4392622,1365.58,1820.54
1699566645.5127592,1646.52,1797.30
1699566645.5829449,1422.25,1800.29
1699566645.6549666,1268.73,1817.49
1699566645.7273889,1473.43,1798.45
1699566645.7993667,1688.46,1819.55
1699566645.8709874,1680.69,1796.80
1699566645.9443262,1740.53,1799.02
1699566646.0151627,1480.20,1818.47
1699566646.0867915,716.04,1801.79
1699566646.15979,717.82,1819.29
1699566646.230909,743.44,1801.30
1699566646.3033004,700.11,1797.96
1699566646.374638,729.90,1820.22
1699566646.4464965,729.87,1800.46
1699566646.5186074,752.55,1823.13
1699566646.5907161,764.84,1799.66
1699566646.6632032,719.80,1799.86
1699566646.734757,736.25,1818.80
1699566646.8072224,722.71,1800.85
1699566646.8796508,754.28,1822.27
1699566646.951277,767.12,1800.16
1699566647.0228682,729.35,1798.12
1699566647.095164,727.58,1818.73
1699566647.1671407,721.24,1803.25
1699566647.239367,754.91,1822.96
1699566647.312003,774.26,1800.43
1699566647.3830912,719.62,1798.93
1699566647.4553032,732.50,1818.32
1699566647.5288773,642.09,1801.54
1699566647.599395,771.29,1821.85
1699566647.670773,997.45,1801.68
1699566647.7426727,1607.41,1802.49
1699566647.815089,1726.08,1821.45
1699566647.8865528,1603.60,1801.13
1699566647.958886,1673.28,1821.61
1699566648.0308254,1630.07,1801.04
1699566648.1030354,1657.57,1799.70
1699566648.175167,1709.62,1821.17
1699566648.2472804,737.10,1799.22
1699566648.318854,799.40,1820.72
1699566648.391088,865.92,1799.23
1699566648.4632041,815.74,1803.41
1699566648.534958,816.36,1821.63
1699566648.607269,826.47,1798.84
1699566648.680993,842.71,1819.08
1699566648.7511132,860.81,1799.88
1699566648.8225741,809.78,1803.72
1699566648.896703,803.94,1821.47
1699566648.9681227,794.99,1800.79
1699566649.038916,831.04,1819.70
1699566649.1108851,831.11,1798.32
1699566649.1831295,780.42,1798.68
1699566649.255442,793.44,1820.08
1699566649.326158,769.86,1800.18
1699566649.3994803,811.37,1821.33
1699566649.470418,818.53,1798.03
1699566649.5433052,771.85,1800.54
1699566649.6146822,867.50,1818.82
1699566649.6866193,745.21,1804.17
1699566649.758924,1382.58,1820.32
1699566649.8310452,1559.34,1798.81
1699566649.902853,1220.13,1799.47
1699566649.9747896,1175.20,1820.82
1699566650.0494502,1431.73,1798.18
1699566650.1188161,1698.72,1820.38
1699566650.1907282,1720.36,1798.53
1699566650.2631443,1913.43,1801.09
1699566650.334773,751.58,1820.12
1699566650.4074094,767.55,1798.58
1699566650.4790778,786.28,1819.67
1699566650.551567,799.11,1798.07
1699566650.6229775,754.28,1799.94
1699566650.6952875,775.44,1820.20
1699566650.767325,751.25,1800.72
1699566650.8386016,771.22,1818.33
1699566650.9105847,783.77,1799.54
1699566650.982795,735.24,1799.45
1699566651.054998,749.07,1816.74
1699566651.1273513,721.07,1795.39
1699566651.2000563,766.94,1816.46
1699566651.271199,774.33,1798.52
1699566651.3427281,726.49,1797.96
1699566651.4158123,748.76,1816.54
1699566651.4874606,836.31,1800.88
1699566651.5584378,793.04,1817.70
1699566651.6311448,783.78,1800.00
1699566651.7025185,1431.66,1794.66
1699566651.7753458,1684.67,1817.58
1699566651.8483546,1661.58,1798.64
1699566651.9190156,1668.88,1819.22
1699566651.9915023,1602.10,1797.35
1699566652.0660493,1593.44,1795.50
1699566652.1363857,1604.03,1815.84
1699566652.2072258,614.25,1798.22
1699566652.279548,619.84,1821.77
1699566652.3505015,674.96,1799.83
1699566652.42299,660.61,1795.75
1699566652.4948268,694.21,1817.75
1699566652.5667584,669.66,1799.13
1699566652.6386743,682.54,1817.02
1699566652.7105553,708.25,1797.56
1699566652.7839818,679.90,1798.77
1699566652.8551495,696.04,1817.44
1699566652.927355,688.05,1799.42
1699566653.0009894,696.51,1819.81
1699566653.0708768,716.39,1796.42
1699566653.142739,679.97,1797.14
1699566653.214358,699.89,1816.84
1699566653.2875557,662.87,1797.68
1699566653.3592088,666.53,1817.66
1699566653.4317546,651.57,1796.10
1699566653.5031998,669.01,1792.83
1699566653.5752523,836.98,1812.64
1699566653.6470292,655.02,1795.90
1699566653.7195923,639.66,1813.68
1699566653.7903273,655.47,1797.13
1699566653.8622465,660.27,1797.13
1699566653.9354205,750.06,1817.67
1699566654.0072207,743.02,1795.44
1699566654.0789218,788.59,1817.21
1699566654.15224,815.13,1797.09
1699566654.2234533,790.90,1794.93
1699566654.2950838,826.83,1812.60
1699566654.367873,801.28,1798.27
1699566654.4391527,809.20,1817.05
1699566654.5112448,822.09,1798.14
1699566654.584437,759.77,1794.90
1699566654.655652,794.74,1814.69
1699566654.7259529,673.64,1797.07
1699566654.8008409,747.21,1818.08
1699566654.8710625,705.48,1797.25
1699566654.9433417,733.25,1797.93
1699566655.0169349,817.57,1819.18
1699566655.0873241,735.85,1800.16
1699566655.158498,769.56,1816.50
1699566655.2307599,835.60,1799.20
1699566655.3028808,812.59,1797.45
1699566655.3748808,841.63,1817.87
1699566655.4476929,781.01,1797.94
1699566655.5188017,773.11,1813.54
1699566655.5907774,831.92,1798.88
1699566655.66231,773.08,1800.24
1699566655.7356672,830.08,1818.13
1699566655.8072236,728.19,1799.56
1699566655.879041,654.02,1819.13
1699566655.9526193,710.00,1798.31
1699566656.0229328,751.99,1797.11
1699566656.0950794,772.13,1820.77
1699566656.1690392,731.19,1796.38
1699566656.239367,795.91,1816.72
1699566656.3107812,816.83,1796.11
1699566656.3848615,755.35,1797.53
1699566656.4552367,827.93,1816.52
1699566656.5274677,789.51,1798.17
1699566656.5992377,770.81,1818.57
1699566656.6719985,791.66,1796.18
1699566656.7424126,921.25,1795.57
1699566656.8152037,766.39,1814.01
1699566656.8869004,561.62,1797.41
1699566656.958896,534.81,1815.36
1699566657.0306509,594.70,1794.97
1699566657.1030593,681.52,1795.91
1699566657.1752594,756.42,1816.45
1699566657.2471035,745.64,1796.33
1699566657.3209481,747.58,1817.73
1699566657.3908165,757.89,1795.10
1699566657.4633677,756.94,1794.53
1699566657.53673,812.61,1812.74
1699566657.6071498,764.27,1795.47
1699566657.6784244,759.22,1813.74
1699566657.7511554,772.23,1795.86
1699566657.8229566,762.36,1793.73
1699566657.8950732,896.38,1815.15
1699566657.9666467,844.79,1794.62
1699566658.039288,1286.72,1813.69
1699566658.11102,1605.76,1795.87
1699566658.183265,1626.57,1795.53
1699566658.2546916,1627.98,1815.61
1699566658.3274171,1609.62,1796.17
1699566658.3991752,1458.53,1812.90
1699566658.47232,1486.83,1796.28
1699566658.5432005,1841.08,1795.03
1699566658.6147673,443.76,1815.42
1699566658.6875334,434.09,1793.29
1699566658.759219,487.35,1811.10
1699566658.8304873,513.00,1793.38
1699566658.9026816,526.12,1795.46
1699566658.9746406,577.70,1817.64
1699566659.0470757,540.01,1794.76
1699566659.1197002,530.67,1807.00
1699566659.1909406,545.18,1794.68
1699566659.2628717,541.20,1793.71
1699566659.3346574,593.09,1814.35
1699566659.407295,569.63,1794.58
1699566659.4787982,557.23,1803.23
1699566659.5522506,558.10,1794.05
1699566659.6231682,541.05,1795.72
1699566659.6946476,433.66,1815.49
1699566659.7671142,1012.63,1796.74
1699566659.840427,1277.28,1794.74
1699566659.9108713,1647.95,1792.63
1699566659.9828472,1691.84,1797.11
1699566660.0552385,1727.36,1817.46
1699566660.1274762,1697.60,1797.53
1699566660.1992395,1633.29,1790.63
1699566660.2721753,1822.08,1786.94
1699566660.3426578,855.11,1797.23
1699566660.415357,510.78,1815.25
1699566660.4864588,547.85,1795.44
1699566660.5587673,568.21,1789.55
1699566660.6316922,587.39,1784.35
1699566660.7043252,593.55,1794.94
1699566660.7749188,650.38,1816.96
1699566660.847314,617.67,1796.16
1699566660.9188066,608.73,1785.99
1699566660.9932146,610.71,1783.96
1699566661.0628746,613.04,1797.99
1699566661.1350603,759.60,1814.68
1699566661.2069743,594.90,1796.31
1699566661.2791715,676.58,1778.17
1699566661.3507533,712.05,1783.52
1699566661.4228363,1562.43,1795.56
1699566661.494979,1412.13,1813.71
1699566661.5663912,518.81,1796.47
1699566661.6404595,559.89,1778.48
1699566661.71103,578.58,1783.03
1699566661.7829907,591.30,1798.30
1699566661.8575864,642.13,1814.50
1699566661.9271848,613.91,1795.69
1699566661.9988573,596.89,1774.92
1699566662.0712936,598.50,1784.33
1699566662.1425116,600.78,1796.40
1699566662.2149806,652.38,1815.46
1699566662.2887278,623.90,1795.86
1699566662.358656,601.06,1774.35
1699566662.4312983,740.41,1787.96
1699566662.5049887,662.50,1795.18
1699566662.575303,529.31,1815.34
1699566662.6470082,543.14,1796.91
1699566662.718475,547.59,1767.56
1699566662.79081,564.63,1785.24
1699566662.8630157,575.18,1795.64
1699566662.9349728,624.87,1816.93
1699566663.0070605,601.64,1793.94
1699566663.07912,573.49,1768.45
1699566663.1506813,573.16,1791.25
1699566663.2254703,581.52,1798.80
1699566663.2943296,631.45,1814.11
1699566663.367083,616.63,1795.10
1699566663.4398646,574.01,1773.50
1699566663.5112512,563.03,1791.74
1699566663.582989,700.83,1794.14
1699566663.658301,1629.67,1814.34
1699566663.7272575,371.00,1792.87
1699566663.7992287,447.69,1772.13
1699566663.8726962,484.37,1791.22
1699566663.9429333,508.43,1796.56
1699566664.015261,571.01,1813.81
1699566664.087292,555.49,1796.56
1699566664.159141,527.01,1772.15
1699566664.2313187,530.54,1792.55
1699566664.3030732,540.81,1797.89
1699566664.376169,591.90,1815.42
1699566664.4472504,579.98,1794.56
1699566664.5197794,543.38,1774.01
1699566664.5917284,549.14,1794.35
1699566664.6628585,549.63,1797.80
1699566664.7348194,604.89,1811.34
1699566664.809184,588.92,1796.42
1699566664.8795125,547.51,1777.35
1699566664.9513927,547.54,1795.77
1699566665.0249944,554.86,1798.76
1699566665.094718,607.89,1818.09
1699566665.1669588,594.29,1796.30
1699566665.2395105,554.21,1778.97
1699566665.3110306,556.63,1803.81
1699566665.3832521,554.60,1797.40
1699566665.454504,606.20,1815.84
1699566665.5276685,596.28,1797.55
1699566665.5986872,549.69,1786.36
1699566665.670677,548.54,1810.12
1699566665.7429316,551.24,1793.23
1699566665.8150501,575.94,1817.56
1699566665.8876035,568.47,1795.43
1699566665.9594219,523.89,1788.53
1699566666.0308099,536.36,1811.18
1699566666.1028125,528.35,1796.70
1699566666.1746624,431.50,1816.05
1699566666.247611,1179.67,1795.58
1699566666.3192673,457.60,1791.99
1699566666.3911731,490.42,1812.99
1699566666.463136,510.76,1795.79
1699566666.5352788,554.48,1816.29
1699566666.6071887,555.48,1796.34
1699566666.6787682,516.99,1792.65
1699566666.7511225,513.19,1814.06
1699566666.8228097,521.82,1796.68
1699566666.8949227,563.06,1813.18
1699566666.9666595,561.06,1794.99
1699566667.0384734,521.68,1796.30
1699566667.1119828,526.13,1814.02
1699566667.1829457,530.51,1794.20
1699566667.255022,566.82,1814.72
1699566667.3264735,567.16,1794.96
1699566667.399179,527.90,1795.47
1699566667.470489,525.98,1815.64
1699566667.5425775,527.58,1795.38
1699566667.615078,552.60,1813.13
1699566667.686856,605.71,1794.29
1699566667.760927,552.02,1798.26
1699566667.8313653,544.29,1816.41
1699566667.9034529,1821.39,1796.63
1699566667.9759133,882.87,1817.14
1699566668.047089,421.71,1796.04
1699566668.1187718,432.32,1795.27
1699566668.1913502,456.80,1816.01
1699566668.2631123,465.73,1796.73
1699566668.3350642,490.56,1816.21
1699566668.4093106,500.40,1795.71
1699566668.478464,476.71,1797.12
1699566668.5511336,485.23,1817.76
1699566668.6230445,480.01,1794.03
1699566668.6954606,498.28,1816.04
1699566668.7670522,516.79,1795.21
1699566668.8387694,485.30,1795.59
1699566668.9111624,495.06,1815.92
1699566668.983067,488.84,1795.79
1699566669.0548015,507.93,1814.14
1699566669.1286826,517.80,1797.48
1699566669.199273,438.36,1794.87
1699566669.27075,265.69,1816.64
1699566669.3425636,1311.16,1796.15
1699566669.4146988,1753.12,1817.81
1699566669.4874482,675.77,1797.04
1699566669.5606625,294.73,1797.77
1699566669.6314192,332.11,1814.36
1699566669.7023282,324.58,1796.14
1699566669.7751305,334.71,1821.19
1699566669.846518,354.24,1796.81
1699566669.9190016,350.56,1797.44
1699566669.9907305,366.93,1814.97
1699566670.0630615,356.81,1799.01
1699566670.134387,366.61,1815.80
1699566670.2074635,380.00,1792.37
1699566670.2786646,372.36,1794.16
1699566670.3512533,383.75,1813.28
1699566670.4223588,368.38,1798.46
1699566670.4963534,375.57,1815.35
1699566670.5671458,386.33,1795.27
1699566670.6385956,379.28,1792.97
1699566670.7131567,393.76,1814.77
1699566670.7830935,378.58,1797.69
1699566670.8556201,381.97,1816.45
1699566670.9283218,387.46,1795.40
1699566670.9994135,384.06,1797.15
1699566671.0708084,397.80,1816.59
1699566671.144017,377.36,1796.19
1699566671.2153451,427.97,1814.74
1699566671.2872288,968.37,1794.30
1699566671.358543,533.20,1798.74
1699566671.4308922,1760.44,1812.52
1699566671.5033762,263.13,1793.18
1699566671.5751793,327.52,1815.11
1699566671.6474967,348.90,1796.64
1699566671.7186997,366.42,1797.74
1699566671.790943,390.19,1818.08
1699566671.8640945,374.74,1797.09
1699566671.9354246,375.59,1815.32
1699566672.0070968,379.76,1797.93
1699566672.0795503,384.73,1794.90
1699566672.1508322,399.41,1815.51
1699566672.2228878,378.87,1795.28
1699566672.2974699,382.08,1815.91
1699566672.3668113,390.79,1798.00
1699566672.4388413,388.20,1796.47
1699566672.5124137,414.21,1815.05
1699566672.5827932,385.66,1796.07
1699566672.654814,386.64,1815.71
1699566672.7258952,396.77,1799.40
1699566672.7988274,390.10,1797.22
1699566672.8712842,415.94,1815.15
1699566672.942551,388.53,1796.80
1699566673.0148945,386.99,1818.65
1699566673.0871286,394.66,1794.49
1699566673.1587408,398.78,1796.87
1699566673.231278,416.48,1815.23
1699566673.3032174,393.23,1796.12
1699566673.3747423,422.11,1815.00
1699566673.4472232,531.55,1795.92
1699566673.5189385,620.65,1795.82
1699566673.5911405,1324.13,1816.60
1699566673.6651003,300.44,1796.41
1699566673.7353144,358.22,1816.91
1699566673.80765,373.29,1796.16
1699566673.879197,384.04,1802.33
1699566673.9503717,409.23,1817.22
1699566674.0227811,385.45,1797.26
1699566674.0968778,385.55,1815.57
1699566674.1679087,390.98,1795.64
1699566674.2394955,392.07,1795.94
1699566674.3109736,423.42,1815.84
1699566674.3847084,393.20,1793.60
1699566674.4546952,393.77,1815.52
1699566674.5275126,406.34,1796.59
1699566674.598591,394.66,1794.02
1699566674.6707177,418.93,1815.20
1699566674.7429912,404.15,1793.76
1699566674.817553,342.31,1816.94
1699566674.8870745,457.54,1796.81
1699566674.9590456,1586.25,1794.56
1699566675.032341,1880.22,1816.73
1699566675.1019607,407.12,1795.36
1699566675.1750154,443.44,1814.71
1699566675.2491374,455.25,1797.42
1699566675.319247,464.78,1797.14
1699566675.3905592,494.45,1814.86
1699566675.4657347,464.26,1795.72
1699566675.5345533,459.16,1812.32
1699566675.6075118,466.70,1793.67
1699566675.679186,462.39,1794.55
1699566675.750942,489.72,1815.94
1699566675.823186,461.98,1798.81
1699566675.896692,449.77,1810.96
1699566675.9681644,456.24,1795.75
1699566676.038767,380.94,1795.92
1699566676.1106832,674.42,1816.83
1699566676.1829138,531.92,1793.60
1699566676.2548854,1745.15,1807.32
1699566676.3261435,531.77,1793.57
1699566676.399596,399.43,1795.20
1699566676.4709609,448.53,1815.91
1699566676.5425932,431.60,1794.64
1699566676.617558,433.61,1802.89
1699566676.6870606,441.34,1795.56
1699566676.7594433,444.89,1795.56
1699566676.8322294,475.66,1816.21
1699566676.9029772,450.46,1794.57
1699566676.975655,444.04,1801.00
1699566677.0491135,444.53,1792.80
1699566677.1196887,442.86,1796.63
1699566677.1911957,484.41,1816.98
1699566677.2626216,454.77,1795.93
1699566677.335094,437.32,1800.06
1699566677.4070618,511.32,1790.48
1699566677.4812093,1028.95,1794.84
1699566677.551122,782.21,1816.59
1699566677.6231053,1797.79,1795.60
1699566677.695307,1203.01,1795.66
1699566677.7685995,427.13,1791.45
1699566677.8388753,435.74,1796.82
1699566677.9108324,486.97,1816.71
1699566677.9832528,456.65,1797.56
1699566678.0552595,448.70,1792.29
1699566678.1273696,449.67,1786.85
1699566678.2001424,448.77,1795.96
1699566678.2709966,483.65,1819.04
1699566678.3432832,454.79,1797.51
1699566678.4147754,446.53,1787.45
1699566678.4867861,445.58,1788.55
1699566678.5592206,447.40,1795.44
1699566678.631048,477.62,1815.25
1699566678.703398,462.05,1794.70
1699566678.7747924,446.24,1787.02
1699566678.8472302,443.69,1784.26
1699566678.9201372,444.04,1796.73
1699566678.9905133,489.50,1814.99
1699566679.0631301,469.00,1798.06
1699566679.135562,456.63,1786.85
1699566679.2072887,463.30,1781.62
1699566679.2792509,469.01,1795.44
1699566679.35148,507.06,1816.36
1699566679.42327,485.59,1797.73
1699566679.4950368,467.95,1786.76
1699566679.5690517,470.16,1783.44
1699566679.6387663,471.42,1796.54
1699566679.7117562,509.83,1816.07
1699566679.7847872,487.23,1798.15
1699566679.8553638,473.94,1782.08
1699566679.9261317,473.44,1780.85
1699566680.0010471,476.77,1798.82
1699566680.071083,511.07,1816.82
1699566680.1429827,483.09,1798.31
1699566680.2168064,469.46,1778.52
1699566680.2872858,468.91,1779.90
1699566680.3593078,449.47,1794.37
1699566680.4307258,470.38,1814.27
1699566680.502652,333.89,1795.60
1699566680.5748553,664.13,1779.41
1699566680.6472235,1431.42,1781.04
1699566680.720321,1498.42,1794.69
1699566680.7913432,1565.80,1811.79
1699566680.862732,1612.68,1793.50
1699566680.936603,1590.78,1785.20
1699566681.0069678,1567.05,1783.28
1699566681.0793788,1455.02,1799.27
1699566681.1521575,1485.96,1815.89
1699566681.222938,1400.33,1794.92
1699566681.2949865,1371.22,1785.77
1699566681.3697627,1397.25,1782.36
1699566681.43929,1274.59,1796.99
1699566681.5112498,1205.27,1818.29
1699566681.5826628,1097.57,1797.58
1699566681.6553283,1084.37,1781.66
1699566681.7261727,948.82,1784.37
1699566681.7993548,648.19,1795.13
1699566681.871591,560.17,1820.12
1699566681.9432821,449.28,1799.26
1699566682.0146372,444.43,1781.21
1699566682.087417,413.91,1786.06
1699566682.158329,393.34,1794.75
1699566682.231475,383.15,1817.13
1699566682.3038146,450.93,1797.62
1699566682.374725,510.08,1779.87
1699566682.447402,1037.92,1783.61
1699566682.5214076,745.59,1796.67
1699566682.5913174,450.18,1819.52
1699566682.6637719,512.18,1797.57
1699566682.7367086,794.73,1781.09
1699566682.8064227,951.86,1787.00
1699566682.879771,1122.69,1798.18
1699566682.9538724,1226.49,1816.07
1699566683.0235903,1199.05,1799.10
1699566683.0948582,1293.15,1781.24
1699566683.1674054,1304.10,1786.22
1699566683.2391186,1193.13,1795.49
1699566683.310836,1210.35,1818.37
1699566683.3833752,1144.63,1795.67
1699566683.4551716,1473.48,1779.14
1699566683.5273492,1496.72,1781.20
1699566683.5993214,1392.45,1797.07
1699566683.671867,1491.93,1815.38
1699566683.7428372,1565.74,1795.85
1699566683.8152087,1612.37,1780.16
1699566683.8878267,1606.52,1783.30
1699566683.9592254,1500.36,1795.59
1699566684.0306187,1527.58,1816.94
1699566684.1024873,1536.05,1798.05
1699566684.175662,1516.84,1780.44
1699566684.2470338,1550.32,1783.80
1699566684.3189912,1480.54,1796.03
1699566684.3923182,1529.10,1817.36
1699566684.4637783,1538.63,1798.61
1699566684.5349617,1517.91,1780.74
1699566684.6078455,1537.97,1782.08
1699566684.679385,1458.34,1799.70
1699566684.7511067,1508.81,1816.47
1699566684.8229918,1511.18,1796.47
1699566684.895941,1501.76,1774.93
1699566684.9665966,1527.67,1784.56
1699566685.0389469,1445.48,1796.71
1699566685.1115222,1505.14,1817.37
1699566685.1836798,1499.34,1796.91
1699566685.2553692,1484.00,1777.37
1699566685.32805,1512.49,1784.74
1699566685.4000437,1421.41,1800.88
1699566685.4716568,1472.66,1820.36
1699566685.5441399,1473.98,1796.06
1699566685.615663,1479.32,1776.55
1699566685.6869037,1507.56,1786.43
1699566685.759568,1425.42,1797.29
1699566685.8313797,1491.91,1816.73
1699566685.9029694,1480.33,1797.92
1699566685.9751928,1483.95,1777.09
1699566686.047509,1506.40,1784.35
1699566686.119333,1425.55,1794.14
1699566686.1926274,1486.06,1817.39
1699566686.2624896,1497.92,1797.81
1699566686.3356614,1493.18,1778.67
1699566686.4075658,1511.14,1785.85
1699566686.4786763,1428.55,1797.39
1699566686.5515192,1489.87,1821.00
1699566686.6241648,1481.80,1798.31
1699566686.6953304,1483.71,1779.14
1699566686.7670424,1510.69,1786.05
1699566686.839803,1458.39,1797.05
1699566686.9110465,1524.56,1817.17
1699566686.983623,1516.43,1796.83
1699566687.0550907,1518.62,1777.76
1699566687.1272697,1541.02,1784.48
1699566687.1990309,1453.96,1799.23
1699566687.2726493,1520.43,1819.67
1699566687.3426037,1527.41,1798.96
1699566687.4150543,1533.95,1777.27
1699566687.4874334,1564.74,1785.61
1699566687.5588813,1485.13,1797.54
1699566687.630455,1612.05,1819.00
1699566687.7031136,1834.27,1798.05
1699566687.7772293,1819.20,1782.24
1699566687.8465765,1845.30,1786.81
1699566687.919839,1808.20,1796.86
1699566687.9915652,1826.71,1820.18
1699566688.0647936,1854.04,1798.80
1699566688.1351213,1807.56,1783.18
1699566688.206868,1816.63,1788.67
1699566688.2795594,1781.90,1799.82
1699566688.3516736,1784.21,1819.84
1699566688.4229732,1744.52,1798.51
1699566688.4950607,1683.34,1780.68
1699566688.567827,1684.27,1787.12
1699566688.6394053,1612.48,1798.87
1699566688.710958,1655.12,1821.17
1699566688.7831662,1658.33,1799.76
1699566688.857286,1630.29,1783.22
1699566688.9275544,1637.78,1785.57
1699566688.9991758,1557.18,1798.99
1699566689.0712311,1593.51,1817.75
1699566689.145291,1602.93,1797.53
1699566689.2150607,1581.84,1785.14
1699566689.2873058,1598.69,1785.97
1699566689.3593693,1538.48,1799.15
1699566689.430505,1590.49,1816.59
1699566689.5032566,1625.99,1797.78
1699566689.575813,1605.26,1785.76
1699566689.6473825,1620.84,1786.50
1699566689.7194002,1553.78,1802.59
1699566689.7913334,1609.68,1818.33
1699566689.8630674,1598.28,1798.80
1699566689.9351792,1590.79,1788.98
1699566690.006854,1610.61,1784.44
1699566690.0784461,1535.52,1801.28
1699566690.1519845,1601.74,1822.75
1699566690.223563,1627.68,1799.73
1699566690.2969007,1604.24,1788.68
1699566690.3674428,1609.92,1790.78
1699566690.438988,1519.69,1803.19
1699566690.5110912,1565.70,1819.79
1699566690.5832896,1570.21,1795.55
1699566690.6550658,1567.61,1797.04
1699566690.7290761,1579.53,1787.04
1699566690.800937,1497.30,1801.29
1699566690.8707764,1552.78,1821.73
1699566690.9427783,1554.22,1800.89
1699566691.0148513,1562.56,1797.64
1699566691.0876184,1580.75,1791.45
1699566691.1591237,1506.29,1799.36
1699566691.233546,1543.86,1816.95
1699566691.3038442,1539.47,1797.96
1699566691.3749983,1555.98,1799.53
1699566691.4505498,1577.50,1790.70
1699566691.5194001,1485.24,1797.62
1699566691.5916975,1531.66,1818.37
1699566691.663739,1519.24,1797.11
1699566691.735399,1540.41,1804.49
1699566691.807079,1585.26,1798.09
1699566691.8801525,1499.03,1796.90
1699566691.9512527,1537.73,1818.79
1699566692.023389,1510.90,1798.18
1699566692.0951312,1523.77,1805.84
1699566692.1674643,1549.57,1799.26
1699566692.2395718,1481.86,1796.24
1699566692.3109171,1544.17,1817.00
1699566692.3836238,1517.18,1795.67
1699566692.455752,1521.91,1809.06
1699566692.527554,1537.19,1799.73
1699566692.599676,1453.26,1798.22
1699566692.6712298,1504.22,1820.79
1699566692.7437925,1485.14,1797.32
1699566692.8173444,1515.56,1812.62
1699566692.8875968,1531.55,1796.95
1699566692.9592903,1439.14,1798.11
1699566693.0318625,1496.25,1820.75
1699566693.104001,1460.09,1797.53
1699566693.175814,1486.96,1814.18
1699566693.2494545,1516.93,1798.14
1699566693.3201096,1430.00,1796.87
1699566693.391221,1492.95,1816.06
1699566693.465324,1470.54,1798.20
1699566693.5348988,1508.57,1817.77
1699566693.6069183,1518.47,1796.04
1699566693.681004,1430.95,1796.20
1699566693.751098,1489.60,1820.54
1699566693.8236542,1444.30,1797.31
1699566693.898339,1490.89,1818.91
1699566693.9698424,1520.73,1797.89
1699566694.0389407,1449.62,1797.66
1699566694.1120253,1495.59,1817.52
1699566694.1832786,1436.77,1800.03
1699566694.2558336,1485.99,1816.42
1699566694.32736,1511.96,1796.89
1699566694.3991866,1427.11,1798.44
1699566694.4713767,1490.05,1814.20
1699566694.543225,1439.25,1799.84
1699566694.6166263,1489.74,1815.86
1699566694.6871643,1514.47,1796.27
1699566694.759747,1429.83,1796.58
1699566694.832026,1482.79,1816.19
1699566694.9036043,1432.41,1798.61
1699566694.9757087,1484.47,1818.95
1699566695.0488539,1504.57,1796.97
1699566695.1192546,1419.54,1802.21
1699566695.1918688,1478.06,1817.42
1699566695.2634788,1422.61,1797.23
1699566695.335752,1485.98,1819.41
1699566695.4071298,1509.11,1796.66
1699566695.4816658,1420.88,1797.04
1699566695.551102,1472.18,1816.74
1699566695.623147,1424.23,1798.90
1699566695.696385,1467.95,1815.27
1699566695.7671483,1495.48,1798.71
1699566695.839562,1406.21,1796.68
1699566695.9134421,1446.73,1817.67
1699566695.98307,1406.30,1799.11
1699566696.0549452,1457.42,1816.53
1699566696.1298618,1480.57,1798.38
1699566696.1993384,1399.23,1798.59
1699566696.2711596,1442.78,1817.71
1699566696.3427486,1396.33,1800.12
1699566696.4154568,1452.64,1816.61
1699566696.487424,1474.21,1797.46
1699566696.5609386,1392.15,1798.76
1699566696.630922,1426.31,1814.65
1699566696.703355,1389.41,1798.52
1699566696.7754486,1449.69,1816.82
1699566696.8482153,1469.67,1801.56
1699566696.9191153,1384.32,1799.46
1699566696.991346,1439.44,1819.42
1699566697.0634716,1441.92,1796.67
1699566697.1351302,1500.31,1814.74
1699566697.206935,1533.66,1797.82
1699566697.2809684,1510.02,1794.59
1699566697.3508577,1627.14,1819.22
1699566697.4237993,1650.89,1794.97
1699566697.4973433,1656.72,1816.56
1699566697.5671704,1519.14,1793.96
1699566697.6389902,1464.21,1796.46
1699566697.7116656,1462.80,1816.67
1699566697.7834835,1319.08,1799.14
1699566697.854872,1387.87,1818.64
1699566697.9266493,1404.76,1796.78
1699566698.000101,1171.75,1796.23
1699566698.0709176,1047.09,1815.56
1699566698.142952,820.73,1795.65
1699566698.2149959,685.22,1818.04
1699566698.2867484,591.88,1798.67
1699566698.359215,525.95,1796.28
1699566698.4324381,518.79,1814.26
1699566698.5033445,499.97,1796.81
1699566698.57549,510.44,1817.08
1699566698.6469562,481.60,1799.86
1699566698.718743,423.27,1795.03
1699566698.791746,412.35,1814.92
1699566698.8646665,405.60,1796.17
1699566698.935041,428.97,1818.12
1699566699.007154,413.28,1797.74
1699566699.0796194,382.44,1793.92
1699566699.1505938,381.24,1816.09
1699566699.2237282,375.86,1797.29
1699566699.2970037,387.80,1813.96
1699566699.3666306,437.83,1797.64
1699566699.4393077,383.14,1796.76
1699566699.5109792,246.14,1813.66
1699566699.5836763,448.07,1796.67
1699566699.6551793,781.62,1820.98
1699566699.7276597,516.56,1793.92
1699566699.7990868,340.78,1796.45
1699566699.8710012,369.77,1817.88
1699566699.9427378,321.99,1797.56
1699566700.0146997,331.48,1816.95
1699566700.0874584,310.59,1797.19
1699566700.159328,292.99,1796.62
1699566700.2307577,280.97,1817.04
1699566700.3037596,282.40,1796.33
1699566700.3754535,310.62,1817.96
1699566700.4485571,297.81,1796.83
1699566700.5193362,277.25,1797.38
1699566700.5909991,338.03,1814.70
1699566700.6634645,1025.10,1796.79
1699566700.7364836,1436.47,1816.33
1699566700.8073447,1463.84,1794.69
1699566700.879539,1443.09,1794.07
1699566700.952063,1439.56,1814.71
1699566701.0229962,1445.41,1795.72
1699566701.0947661,1498.08,1816.75
1699566701.1675503,1502.33,1794.39
1699566701.238923,1428.64,1792.91
1699566701.3110924,1424.92,1816.12
1699566701.3833947,1427.53,1796.04
1699566701.4551644,1478.17,1815.81
1699566701.526114,1505.83,1796.80
1699566701.6005707,1416.62,1796.13
1699566701.6708508,1419.05,1816.73
1699566701.742481,1405.47,1797.04
1699566701.8148103,1467.35,1814.43
1699566701.8872464,1480.09,1797.09
1699566701.9590325,1410.67,1796.55
1699566702.0311477,1420.07,1813.06
1699566702.1031888,1410.89,1796.18
1699566702.1749587,1461.46,1815.73
1699566702.2493515,1487.46,1796.22
1699566702.3191395,1416.10,1795.55
1699566702.391555,1414.65,1814.36
1699566702.4629943,1405.57,1794.75
1699566702.5362086,1466.66,1814.40
1699566702.6067479,1775.17,1794.25
1699566702.6796079,1785.83,1796.74
1699566702.7515714,1786.78,1816.27
1699566702.8230913,1835.68,1795.82
1699566702.8948295,1433.42,1816.62
1699566702.968587,1505.14,1795.19
1699566703.039092,1770.68,1795.39
1699566703.1117477,1567.41,1815.08
1699566703.1851737,1476.04,1793.77
1699566703.2545683,1530.09,1815.96
1699566703.3276582,1553.37,1794.63
1699566703.401174,1478.83,1796.40
1699566703.470929,1507.39,1814.63
1699566703.5427272,1448.71,1797.42
1699566703.6169713,1502.93,1813.72
1699566703.6873682,1536.62,1795.57
1699566703.759149,1474.03,1792.80
1699566703.8331106,1514.05,1814.53
1699566703.9032304,1479.91,1796.37
1699566703.9755423,1591.03,1816.36
1699566704.047349,1834.76,1797.57
1699566704.1189609,1793.85,1797.44
1699566704.1907537,1796.05,1816.23
1699566704.2629857,1822.73,1796.02
1699566704.3347466,1794.12,1813.15
1699566704.4073532,1632.00,1795.82
1699566704.478696,1490.75,1798.00
1699566704.5531137,1489.86,1818.45
1699566704.623625,1437.68,1795.22
1699566704.6948338,1494.89,1816.54
1699566704.7674093,1518.55,1796.29
1699566704.8391342,1436.69,1800.32
1699566704.9105597,1451.85,1816.59
1699566704.9856153,1417.20,1793.95
1699566705.0554078,1477.02,1814.02
1699566705.1264477,1504.88,1795.61
1699566705.199196,1424.92,1793.50
1699566705.270771,1461.77,1813.67
1699566705.3427176,1440.78,1792.75
1699566705.4151397,1477.85,1813.81
1699566705.4894454,1502.14,1793.88
1699566705.55925,1448.57,1796.50
1699566705.6313832,1526.44,1813.70
1699566705.7033885,1826.69,1794.57
1699566705.7749624,1815.21,1815.11
1699566705.847012,1782.12,1797.05
1699566705.919947,1816.15,1795.01
1699566705.9906752,1766.92,1813.48
1699566706.062762,1777.26,1793.03
1699566706.136927,1561.55,1814.64
1699566706.2073395,1535.24,1795.55
1699566706.278607,1443.28,1795.99
1699566706.353267,1467.56,1812.71
1699566706.4226775,1443.65,1796.12
1699566706.4949894,1493.73,1812.03
1699566706.567886,1502.39,1794.53
1699566706.6393967,1426.60,1794.12
1699566706.7108798,1442.83,1815.46
1699566706.7847579,1413.87,1794.19
1699566706.8548906,1477.02,1812.38
1699566706.9273937,1507.42,1795.38
1699566706.9991124,1425.58,1793.34
1699566707.0710955,1438.43,1812.16
1699566707.1425006,1415.32,1794.89
1699566707.2147071,1470.00,1813.02
1699566707.2882483,1710.94,1793.56
1699566707.3593009,1769.35,1793.70
1699566707.4314113,1785.17,1815.48
1699566707.5034165,1828.98,1796.66
1699566707.5750885,1633.52,1817.95
1699566707.64722,1821.92,1797.63
1699566707.718963,1613.36,1795.62
1699566707.791603,1521.35,1816.92
1699566707.8634672,1457.21,1795.34
1699566707.9363313,1512.67,1813.59
1699566708.007055,1546.04,1796.09
1699566708.078985,1483.93,1792.70
1699566708.1509163,1493.15,1814.52
1699566708.2234998,1445.09,1794.95
1699566708.2950969,1519.78,1812.89
1699566708.3669927,1536.06,1795.62
1699566708.4393275,1470.03,1794.04
1699566708.511418,1474.69,1814.68
1699566708.5834398,1456.41,1793.90
1699566708.655117,1498.25,1814.65
1699566708.7275712,1531.31,1793.40
1699566708.799119,1467.62,1794.86
1699566708.872797,1532.55,1814.29
1699566708.943273,1830.97,1798.25
1699566709.0155525,1775.88,1815.76
1699566709.0883002,1757.34,1796.09
1699566709.1591892,1512.54,1796.48
1699566709.2309937,1755.54,1816.56
1699566709.3030303,1533.92,1795.39
1699566709.3750281,1554.33,1812.72
1699566709.4474583,1548.02,1793.86
1699566709.5190296,1472.84,1794.95
1699566709.5920868,1496.85,1814.99
1699566709.6628165,1461.42,1793.08
1699566709.7351222,1507.13,1814.52
1699566709.8078158,1522.28,1796.33
1699566709.8788984,1455.04,1792.22
1699566709.9516218,1469.00,1814.70
1699566710.024838,1448.45,1795.67
1699566710.0951433,1496.16,1814.00
1699566710.166854,1599.06,1796.89
1699566710.2420342,1884.38,1795.55
1699566710.3114944,1762.93,1814.70
1699566710.3833137,1772.34,1797.25
1699566710.455342,1800.89,1813.62
1699566710.5272617,1626.23,1795.57
1699566710.5990312,1585.86,1795.57
1699566710.67089,1457.20,1816.13
1699566710.7431936,1434.94,1791.24
1699566710.814798,1499.25,1815.46
1699566710.887833,1516.92,1792.62
1699566710.9590774,1432.11,1793.15
1699566711.0309129,1440.18,1813.04
1699566711.1033204,1432.60,1794.24
1699566711.1753328,1484.26,1815.20
1699566711.2474997,1500.54,1796.41
1699566711.3188791,1438.20,1795.79
1699566711.3908415,1445.00,1815.32
1699566711.4629,1431.18,1794.57
1699566711.5359094,1513.55,1812.75
1699566711.6082919,1780.22,1793.09
1699566711.6795805,1781.33,1794.65
1699566711.7507176,1785.68,1812.75
1699566711.823026,1512.54,1793.70
1699566711.8953326,1778.82,1815.21
1699566711.967374,1647.99,1793.78
1699566712.039146,1506.90,1796.00
1699566712.11088,1488.03,1812.11
1699566712.183427,1464.76,1794.08
1699566712.2548177,1509.77,1815.77
1699566712.3271594,1524.69,1795.35
1699566712.3994644,1451.64,1795.54
1699566712.4707854,1451.73,1813.53
1699566712.5423818,1440.64,1793.73
1699566712.6150086,1535.76,1815.34
1699566712.6886845,1564.98,1794.46
1699566712.7599444,1483.76,1796.71
1699566712.8305032,1731.13,1815.29
1699566712.9029276,1757.33,1799.54
1699566712.9749775,1789.95,1814.75
1699566713.0475595,1768.94,1793.87
1699566713.1192179,1790.62,1796.71
1699566713.1912081,1513.37,1813.82
1699566713.2628443,1850.82,1794.31
1699566713.3352828,1565.96,1815.11
1699566713.4090304,1551.32,1794.96
1699566713.479418,1470.53,1794.19
1699566713.55143,1492.55,1815.51
1699566713.6249275,1457.19,1794.52
1699566713.6954236,1496.24,1815.71
1699566713.767435,1527.30,1792.39
1699566713.838981,1435.20,1792.32
1699566713.911786,1460.82,1811.78
1699566713.9835958,1431.05,1792.90
1699566714.0567384,1540.86,1816.01
1699566714.127316,1634.04,1795.36
1699566714.199254,1651.05,1796.08
1699566714.2711482,1749.90,1815.04
1699566714.3439748,1780.08,1795.39
1699566714.4159012,1797.67,1812.96
1699566714.4874578,1757.54,1795.82
1699566714.560599,1517.49,1796.36
1699566714.6314173,1624.43,1817.71
1699566714.7033796,1500.55,1795.44
1699566714.7759821,1544.53,1814.26
1699566714.847173,1570.88,1793.03
1699566714.9190779,1482.74,1796.69
1699566714.9906795,1513.35,1812.16
1699566715.063482,1474.84,1795.14
1699566715.135095,1538.04,1814.69
1699566715.2075584,1524.72,1795.21
1699566715.279431,1868.94,1792.90
1699566715.350573,1764.34,1814.32
1699566715.4231198,1761.62,1794.60
1699566715.4957154,1778.86,1816.90
1699566715.5673149,1648.26,1794.70
1699566715.6392019,1882.25,1794.34
1699566715.7118099,1594.12,1811.95
1699566715.783687,1531.97,1791.54
1699566715.855605,1572.77,1809.54
1699566715.928165,1632.44,1795.06
1699566715.9991574,1710.72,1792.95
1699566716.070959,1753.03,1816.89
1699566716.1450284,1744.39,1793.98
1699566716.214599,1757.96,1816.47
1699566716.287175,1652.33,1796.99
1699566716.3594396,1817.70,1800.51
1699566716.4316247,1654.63,1817.92
1699566716.5031617,1584.73,1800.73
1699566716.575831,1733.78,1821.93
1699566716.6474996,1719.26,1798.78
1699566716.7190564,1357.45,1801.18
1699566716.7913275,1582.88,1820.12
1699566716.8627765,1746.06,1802.37
1699566716.935264,1772.74,1819.71
1699566717.00694,1670.55,1797.48
1699566717.0796864,1600.30,1798.34
1699566717.1507056,1624.50,1818.46
1699566717.2229326,1597.54,1798.92
1699566717.2950058,1622.91,1819.94
1699566717.36693,1671.84,1799.75
1699566717.439264,1618.31,1799.05
1699566717.5107625,1665.34,1816.31
1699566717.5838213,1642.18,1795.97
1699566717.654809,1661.27,1819.63
1699566717.7274017,1675.75,1798.79
1699566717.7994392,1626.83,1801.74
1699566717.8716922,1642.59,1812.94
1699566717.9447489,1602.52,1795.96
1699566718.014869,1615.18,1818.16
1699566718.0870233,1633.12,1797.62
1699566718.1618502,1562.16,1796.52
1699566718.2316186,1597.18,1818.09
1699566718.3028915,1566.41,1797.29
1699566718.3749504,1607.16,1817.69
1699566718.4471734,1611.61,1795.56
1699566718.5188537,1548.84,1797.16
1699566718.5905883,1569.13,1818.86
1699566718.6637263,1536.30,1797.92
1699566718.7354038,1580.60,1817.78
1699566718.8070462,1598.83,1795.23
1699566718.8786676,1537.22,1799.81
1699566718.9508483,1570.50,1816.01
1699566719.0234034,1544.33,1798.56
1699566719.095225,1587.00,1815.44
1699566719.1674292,1600.65,1797.33
1699566719.238881,1523.46,1796.74
1699566719.3120332,1556.48,1816.63
1699566719.382751,1521.69,1797.76
1699566719.4548743,1557.73,1815.83
1699566719.527492,1575.31,1798.33
1699566719.5993438,1506.24,1797.80
1699566719.6715858,1523.63,1815.46
1699566719.7443173,1496.66,1795.64
1699566719.8150635,1543.33,1815.19
1699566719.886939,1568.50,1798.07
1699566719.9591644,1504.42,1799.39
1699566720.0314639,1524.78,1818.39
1699566720.1035335,1499.99,1799.63
1699566720.1749904,1541.74,1817.63
1699566720.2475693,1555.32,1798.36
1699566720.3188398,1482.41,1797.37
1699566720.3911133,1507.16,1819.76
1699566720.4638374,1478.37,1801.05
1699566720.535087,1528.92,1820.90
1699566720.6067111,1543.39,1801.08
1699566720.6806815,1464.32,1799.90
1699566720.7509549,1491.72,1819.46
1699566720.8234403,1471.65,1799.07
1699566720.8966515,1508.12,1816.01
1699566720.9675999,1534.02,1799.29
1699566721.0390694,1450.77,1797.56
1699566721.1124604,1473.54,1817.92
1699566721.1834803,1430.15,1798.36
1699566721.2553942,1480.05,1820.39
1699566721.327706,1499.98,1799.23
1699566721.3989773,1416.02,1799.49
1699566721.470675,1456.37,1822.25
1699566721.544831,1435.41,1800.56
1699566721.6166017,1491.88,1818.31
1699566721.687479,1520.09,1802.97
1699566721.7594998,1435.06,1796.91
1699566721.8316488,1460.75,1814.35
1699566721.9030662,1420.36,1796.82
1699566721.9758918,1488.35,1814.71
1699566722.0473876,1527.18,1796.31
1699566722.1185787,1419.78,1797.96
1699566722.191343,1421.86,1818.92
1699566722.2655032,1377.25,1798.14
1699566722.3353379,1421.57,1819.53
1699566722.4073782,1457.10,1803.03
1699566722.4806666,1360.91,1798.48
1699566722.552418,1379.81,1820.76
1699566722.6237288,1354.41,1800.17
1699566722.6949923,1422.89,1819.82
1699566722.7670503,1415.07,1799.67
1699566722.8394308,1298.47,1799.17
1699566722.911924,1313.46,1821.14
1699566722.9833071,1285.73,1804.69
1699566723.0550041,1333.32,1822.30
1699566723.127256,1336.12,1800.18
1699566723.198786,1212.75,1799.57
1699566723.2716079,1223.88,1820.98
1699566723.3437548,1168.93,1798.23
1699566723.4173844,1189.69,1819.81
1699566723.4869366,1183.49,1798.04
1699566723.5597918,1052.93,1801.76
1699566723.6325808,1055.52,1821.49
1699566723.7024877,1012.74,1802.13
1699566723.7752883,1019.60,1823.88
1699566723.8468597,1054.62,1800.47
1699566723.9190078,992.89,1803.86
1699566723.9916399,979.67,1822.23
1699566724.0628853,922.79,1799.32
1699566724.1351876,992.92,1820.41
1699566724.20743,1049.00,1798.90
1699566724.2797322,905.83,1797.83
1699566724.3514917,863.80,1818.29
1699566724.4228783,814.98,1801.69
1699566724.4951959,873.69,1819.49
1699566724.5695336,900.02,1802.06
1699566724.6393716,835.48,1800.34
1699566724.7108526,953.52,1816.72
1699566724.783073,988.43,1801.05
1699566724.854752,992.21,1821.18
1699566724.9273443,1055.89,1800.06
1699566724.9988298,987.62,1802.42
1699566725.0712407,990.42,1821.57
1699566725.1424556,1065.33,1797.14
1699566725.21577,1182.29,1817.93
1699566725.2873788,1059.38,1801.01
1699566725.3588676,709.08,1799.21
1699566725.4313505,763.64,1820.27
1699566725.5030627,999.52,1799.67
1699566725.575641,820.72,1818.79
1699566725.648598,778.15,1796.96
1699566725.7189646,797.13,1797.88
1699566725.7908146,915.15,1815.74
1699566725.8632224,854.15,1797.95
1699566725.935446,921.71,1821.77
1699566726.0067315,979.25,1796.71
1699566726.078637,871.80,1794.70
1699566726.152405,661.46,1816.55
1699566726.2232726,481.14,1801.00
1699566726.2951763,430.79,1819.08
1699566726.3670616,588.07,1799.31
1699566726.4392655,638.26,1796.93
1699566726.5106378,621.19,1818.11
1699566726.5828884,562.58,1802.48
1699566726.655238,560.51,1816.20
1699566726.7273824,564.38,1798.51
1699566726.8007817,532.84,1797.91
1699566726.8715763,499.94,1818.64
1699566726.9426932,504.24,1798.60
1699566727.0153432,655.20,1813.55
1699566727.0880077,743.68,1800.29
1699566727.1588671,669.55,1798.17
1699566727.2322967,678.19,1816.68
1699566727.30318,713.74,1801.63
1699566727.3752222,830.67,1810.40
1699566727.4470181,909.20,1801.70
1699566727.5189884,927.73,1800.36
1699566727.5905623,1084.39,1816.85
1699566727.662796,1112.64,1797.09
1699566727.7355616,1147.09,1807.73
1699566727.8069606,1114.79,1796.69
1699566727.879484,1006.42,1800.17
1699566727.9508178,1079.34,1822.62
1699566728.023634,1074.68,1799.34
1699566728.09581,1017.33,1807.16
1699566728.167017,1048.18,1794.90
1699566728.2393095,939.60,1800.13
1699566728.3107843,967.79,1820.83
1699566728.3832753,980.27,1799.92
1699566728.4559243,954.79,1797.43
1699566728.5275877,928.57,1791.70
1699566728.5988078,862.78,1800.02
1699566728.6723897,845.09,1822.70
1699566728.742615,789.67,1798.39
1699566728.815004,792.14,1794.47
1699566728.8868074,806.31,1788.13
1699566728.9595344,767.70,1803.42
1699566729.030709,767.06,1819.58
1699566729.1040683,722.44,1798.27
1699566729.1754122,731.49,1791.98
1699566729.2472484,773.76,1789.14
1699566729.318795,679.14,1800.44
1699566729.3906386,684.97,1819.76
1699566729.4630473,666.99,1801.53
1699566729.5352855,684.62,1789.31
1699566729.6070106,674.10,1790.25
1699566729.6787026,627.99,1801.35
1699566729.7505622,642.71,1821.09
1699566729.8231084,602.53,1802.79
1699566729.895342,584.59,1787.65
1699566729.967036,591.17,1787.60
1699566730.0405784,546.35,1798.25
1699566730.1106298,529.31,1819.97
1699566730.1831875,462.08,1800.77
1699566730.2548738,469.93,1783.89
1699566730.327236,498.05,1787.93
1699566730.3991022,495.33,1798.88
1699566730.4707706,543.72,1819.26
1699566730.5429523,555.33,1799.35
1699566730.6148937,543.33,1778.63
1699566730.6871414,539.69,1787.85
1699566730.7590005,493.61,1802.08
1699566730.8314965,487.18,1820.34
1699566730.9040084,464.95,1800.84
1699566730.9747822,479.79,1779.02
1699566731.0470533,490.09,1789.00
1699566731.1197126,464.43,1796.83
1699566731.1910417,497.48,1822.75
1699566731.2634108,432.39,1797.96
1699566731.3378851,433.52,1779.45
1699566731.407384,439.29,1787.72
1699566731.47953,411.83,1800.67
1699566731.5512445,419.90,1822.88
1699566731.6232073,415.34,1800.74
1699566731.6943173,444.84,1780.89
1699566731.767478,473.14,1791.02
1699566731.8397446,444.25,1797.86
1699566731.9117434,428.97,1818.40
1699566731.9825177,406.15,1797.87
1699566732.0548532,444.61,1776.29
1699566732.1266983,470.00,1790.13
1699566732.1988926,428.89,1799.42
1699566732.271899,433.78,1820.10
1699566732.3430474,419.23,1798.73
1699566732.4155705,429.83,1772.40
1699566732.4886065,442.01,1793.47
1699566732.5590312,421.37,1798.32
1699566732.6304173,431.39,1819.33
1699566732.7028933,439.72,1800.69
1699566732.7754664,451.98,1775.56
1699566732.846631,452.77,1793.99
1699566732.918984,433.72,1797.71
1699566732.990742,458.79,1818.63
1699566733.0641937,442.55,1800.88
1699566733.138042,457.04,1778.40
1699566733.2074533,474.12,1795.52
1699566733.27876,456.41,1799.77
1699566733.3511224,445.60,1820.65
1699566733.4228177,414.46,1799.04
1699566733.4953825,411.96,1776.77
1699566733.5665758,402.19,1798.67
1699566733.6402876,372.57,1800.03
1699566733.7109668,382.08,1817.48
1699566733.783552,368.02,1798.74
1699566733.855806,370.47,1782.21
1699566733.9273129,374.70,1798.49
1699566733.9991658,351.51,1798.59
1699566734.073091,375.21,1819.60
1699566734.1429513,377.88,1802.40
1699566734.214857,390.04,1783.85
1699566734.2876306,390.24,1802.95
1699566734.3598337,376.61,1798.98
1699566734.4309363,392.82,1820.16
1699566734.5037677,392.23,1800.99
1699566734.5756817,410.80,1784.57
1699566734.646991,423.73,1806.86
1699566734.7191606,407.04,1799.20
1699566734.7925525,425.80,1819.53
1699566734.8630493,420.32,1801.80
1699566734.9355578,405.17,1789.54
1699566735.0084543,424.69,1809.62
1699566735.0795946,391.17,1799.48
1699566735.1516902,399.55,1823.52
1699566735.2237573,387.79,1801.70
1699566735.2960885,411.83,1792.18
1699566735.368306,396.27,1811.09
1699566735.4398074,327.80,1799.25
1699566735.5115385,325.38,1819.16
1699566735.5835285,312.86,1800.79
1699566735.655058,312.47,1793.57
1699566735.7275665,348.68,1810.44
1699566735.7992845,320.97,1796.18
1699566735.871875,312.98,1816.72
1699566735.9441314,271.97,1800.18
1699566736.0158415,281.52,1800.31
1699566736.0877833,293.68,1819.43
1699566736.1590989,284.86,1800.69
1699566736.2308025,293.13,1822.24
1699566736.3032312,284.56,1798.61
1699566736.3762944,291.03,1799.13
1699566736.4475927,289.30,1821.76
1699566736.5198138,264.12,1801.37
1699566736.5919862,267.06,1820.13
1699566736.663396,255.26,1798.70
1699566736.735761,266.97,1798.29
1699566736.809123,272.65,1818.57
1699566736.8791244,257.08,1799.54
1699566736.9513655,258.64,1819.77
1699566737.0244083,256.38,1799.32
1699566737.095796,273.23,1800.11
1699566737.1673212,275.22,1821.61
1699566737.24149,253.52,1799.00
1699566737.3106835,243.78,1819.42
1699566737.3829699,244.16,1799.07
1699566737.457663,250.12,1800.58
1699566737.5273607,252.97,1819.79
1699566737.5994048,239.59,1800.29
1699566737.6714172,244.37,1817.40
1699566737.7433748,254.26,1800.06
1699566737.8150628,264.11,1800.82
1699566737.8871047,292.78,1821.36
1699566737.9592924,244.70,1798.90
1699566738.0304303,249.82,1819.82
1699566738.1031306,244.73,1801.30
1699566738.1762292,252.77,1800.63
1699566738.247264,258.17,1817.92
1699566738.3187292,255.80,1798.07
1699566738.3940067,254.19,1818.88
1699566738.4626606,250.08,1797.99
1699566738.5347755,259.19,1799.71
1699566738.6076188,264.16,1818.56
1699566738.679014,249.95,1800.83
1699566738.750887,253.32,1818.47
1699566738.824832,254.63,1801.53
1699566738.8954613,267.53,1802.21
1699566738.9665124,293.06,1817.94
1699566739.0414827,267.21,1797.86
1699566739.1107967,271.88,1819.14
1699566739.1833901,263.93,1801.41
1699566739.2546442,263.45,1800.55
1699566739.3285937,268.95,1821.94
1699566739.3994994,256.83,1801.75
1699566739.4714632,252.73,1819.64
1699566739.5425947,252.02,1800.09
1699566739.6152587,268.46,1801.41
1699566739.6868038,272.28,1816.61
1699566739.7591314,261.53,1799.36
1699566739.8307543,258.12,1819.88
1699566739.9026058,256.06,1798.58
1699566739.9755032,266.76,1800.28
1699566740.0474272,275.03,1819.56
1699566740.1186175,255.44,1799.93
1699566740.1926405,254.76,1820.76
1699566740.2636642,251.00,1799.91
1699566740.3357124,261.69,1798.40
1699566740.4086902,272.37,1825.04
1699566740.4793565,253.23,1801.06
1699566740.5512042,255.03,1821.44
1699566740.6249807,258.97,1799.38
1699566740.6954098,272.10,1801.86
1699566740.7668583,270.97,1820.00
1699566740.8389513,256.90,1799.30
1699566740.9109948,259.00,1820.64
1699566740.9827373,256.81,1802.30
1699566741.055521,267.98,1800.63
1699566741.1296363,271.57,1817.24
1699566741.1991155,259.14,1799.39
1699566741.271669,258.50,1819.17
1699566741.3453915,257.32,1802.34
1699566741.4151778,268.51,1801.05
1699566741.4871447,276.13,1821.36
1699566741.5592625,258.67,1801.33
1699566741.6307788,260.49,1818.99
1699566741.703384,256.67,1800.45
1699566741.7746396,268.23,1798.84
1699566741.8475187,277.21,1818.99
1699566741.9191585,256.97,1800.61
1699566741.992296,261.75,1819.33
1699566742.0626776,256.52,1800.07
1699566742.1355255,265.02,1799.06
1699566742.2074175,273.62,1818.90
1699566742.2789276,266.21,1799.49
1699566742.3511965,260.25,1819.50
1699566742.4226766,257.06,1801.01
1699566742.4961002,269.61,1797.96
1699566742.5674121,277.20,1819.44
1699566742.6395893,257.82,1799.09
1699566742.7130249,265.48,1819.12
1699566742.7828872,261.05,1800.69
1699566742.8548985,270.31,1801.18
1699566742.9273994,286.30,1819.91
1699566742.9993987,267.22,1799.22
1699566743.0716727,270.41,1819.73
1699566743.1424987,262.67,1799.17
1699566743.2155094,273.99,1798.70
1699566743.286734,288.62,1818.36
1699566743.3592956,264.40,1797.08
1699566743.4314024,266.58,1818.97
1699566743.5029821,265.44,1797.75
1699566743.5747612,275.29,1798.19
1699566743.646768,283.47,1817.63
1699566743.7190118,272.67,1799.95
1699566743.790683,300.14,1818.42
1699566743.8636773,321.05,1803.31
1699566743.9349225,317.81,1801.33
1699566744.0070806,342.78,1820.05
1699566744.0807674,326.88,1801.71
1699566744.151432,323.64,1818.94
1699566744.223092,330.10,1801.44
1699566744.2974439,321.25,1798.73
1699566744.367009,337.90,1821.52
1699566744.4396977,306.98,1801.55
1699566744.5130222,290.27,1820.87
1699566744.5837066,294.93,1799.07
1699566744.6551256,301.36,1799.77
1699566744.7267702,313.57,1819.28
1699566744.7993448,314.89,1800.87
1699566744.8712318,309.54,1817.71
1699566744.9439468,306.62,1795.34
1699566745.0154703,295.85,1799.82
1699566745.0874794,308.69,1816.85
1699566745.159077,281.23,1799.22
1699566745.2306545,279.28,1821.18
1699566745.3033955,276.12,1800.73
1699566745.3753922,288.89,1801.12
1699566745.4483485,299.80,1820.89
1699566745.519079,282.88,1798.75
1699566745.5911121,283.49,1819.97
1699566745.6657653,274.88,1802.48
1699566745.7354705,287.96,1801.00
1699566745.8071682,300.66,1821.58
1699566745.8806744,279.01,1801.22
1699566745.9509382,286.01,1820.97
1699566746.0226321,273.43,1800.96
1699566746.0952058,314.27,1799.55
1699566746.166745,343.19,1819.68
1699566746.2395966,294.75,1799.13
1699566746.3114405,290.00,1820.52
1699566746.3832266,281.13,1800.82
1699566746.4552214,289.15,1799.96
1699566746.5276601,299.40,1821.74
1699566746.6002462,278.20,1800.23
1699566746.6704342,283.80,1820.42
1699566746.743197,278.09,1801.67
1699566746.8162084,280.65,1801.47
1699566746.8873787,296.93,1820.93
1699566746.9591315,297.14,1798.77
1699566747.032647,301.34,1820.64
1699566747.1034224,276.71,1798.88
1699566747.1758633,305.44,1799.06
1699566747.2471616,310.80,1817.95
1699566747.3194687,280.31,1800.51
1699566747.39103,286.24,1819.76
1699566747.463437,276.93,1799.89
1699566747.535248,285.13,1799.40
1699566747.6073723,296.42,1818.25
1699566747.6818082,277.14,1799.45
1699566747.7511067,283.91,1820.99
1699566747.8228703,278.81,1803.79
1699566747.8951843,290.39,1802.01
1699566747.9666648,302.91,1822.32
1699566748.0395787,284.20,1798.79
1699566748.1108763,290.68,1817.38
1699566748.183772,286.36,1798.17
1699566748.2551734,290.76,1800.73
1699566748.326504,307.70,1820.01
1699566748.3994365,287.40,1799.50
1699566748.4716346,288.73,1815.13
1699566748.5424445,283.46,1799.64
1699566748.6168723,289.78,1799.24
1699566748.6876655,304.77,1818.10
1699566748.7588868,283.32,1799.05
1699566748.8316243,287.35,1813.92
1699566748.9029102,280.50,1800.26
1699566748.975237,291.66,1797.15
1699566749.049122,300.82,1821.38
1699566749.118941,280.49,1801.07
1699566749.1917868,277.74,1807.84
1699566749.2626326,279.83,1799.19
1699566749.33663,285.71,1800.81
1699566749.4071572,302.11,1826.15
1699566749.4790323,278.59,1801.70
1699566749.551034,283.72,1804.96
1699566749.6231382,284.97,1799.95
1699566749.6954048,281.97,1799.03
1699566749.7676313,295.89,1822.23
1699566749.8392634,283.84,1801.94
1699566749.9108741,291.57,1799.84
1699566749.9844694,284.30,1793.53
1699566750.0554519,287.92,1799.13
1699566750.1273901,300.13,1818.84
1699566750.2011518,282.89,1800.33
1699566750.2711465,286.08,1793.78
1699566750.3428838,286.00,1790.95
1699566750.41825,287.55,1798.53
1699566750.487326,297.65,1819.17
1699566750.5592332,283.91,1799.42
1699566750.6315434,293.34,1788.23
1699566750.7032695,285.34,1787.45
1699566750.7754357,282.42,1799.95
1699566750.8472953,310.50,1819.79
1699566750.919877,283.10,1800.02
1699566750.9911773,291.04,1787.95
1699566751.0634716,282.80,1786.13
1699566751.1356087,287.04,1799.77
1699566751.207675,294.72,1819.36
1699566751.2793975,280.62,1798.61
1699566751.3506925,288.87,1783.91
1699566751.4235163,284.16,1788.94
1699566751.4953785,284.89,1796.65
1699566751.5676723,289.64,1823.36
1699566751.6388245,282.70,1798.14
1699566751.7116547,291.14,1782.39
1699566751.784552,285.81,1787.13
1699566751.8550854,285.09,1801.25
1699566751.9273098,291.51,1819.29
1699566751.9999511,286.35,1798.03
1699566752.0707214,288.98,1780.41
1699566752.1441357,284.55,1790.32
1699566752.2152128,288.83,1799.41
1699566752.287487,290.87,1819.43
1699566752.3597243,282.80,1797.89
1699566752.4310446,290.85,1775.94
1699566752.5038662,286.25,1788.99
1699566752.574895,283.83,1799.33
1699566752.6474113,294.87,1819.04
1699566752.7187388,288.59,1797.29
1699566752.7920244,289.14,1774.83
1699566752.862853,287.57,1794.04
1699566752.9355702,283.02,1798.29
1699566753.007396,285.20,1818.12
1699566753.0791862,284.18,1801.31
1699566753.1533942,292.59,1776.81
1699566753.2228358,288.49,1797.70
1699566753.2953994,303.13,1798.47
1699566753.3666763,325.01,1821.66
1699566753.4396317,313.69,1799.64
1699566753.51089,314.73,1778.06
1699566753.5846848,313.03,1797.16
1699566753.655336,308.86,1802.42
1699566753.727224,314.24,1820.60
1699566753.7994666,306.80,1801.99
1699566753.8719301,320.82,1785.95
1699566753.9431343,298.83,1800.82
1699566754.0149853,291.68,1800.68
1699566754.0878592,296.15,1822.92
1699566754.1591926,295.82,1800.76
1699566754.2306805,298.29,1788.95
1699566754.3048668,292.54,1805.27
1699566754.375089,285.75,1801.24
1699566754.4473794,294.67,1818.33
1699566754.519076,293.69,1801.29
1699566754.5908356,293.32,1791.30
1699566754.6636775,302.11,1814.65
1699566754.735806,317.31,1798.59
1699566754.8075778,322.84,1816.64
1699566754.878199,317.69,1797.89
1699566754.9539037,318.23,1787.40
1699566755.0231261,296.39,1818.31
1699566755.0959291,294.15,1797.40
1699566755.167047,294.53,1819.89
1699566755.2393692,298.04,1801.36
1699566755.3107042,298.77,1799.28
1699566755.38432,299.21,1821.18
1699566755.4550927,292.18,1800.24
1699566755.527045,298.75,1820.98
1699566755.5994756,298.74,1798.68
1699566755.6709092,300.62,1800.38
1699566755.7432983,303.67,1820.41
1699566755.8151164,292.47,1800.18
1699566755.887847,301.68,1819.17
1699566755.9592867,299.93,1800.97
1699566756.0308206,302.63,1801.20
1699566756.1053908,302.51,1818.84
1699566756.1749945,294.82,1800.37
1699566756.2478495,300.47,1816.70
1699566756.3206458,302.70,1800.38
1699566756.3917847,301.94,1800.07
1699566756.4630458,301.31,1820.45
1699566756.536701,291.89,1799.86
1699566756.6075113,293.18,1819.12
1699566756.679394,296.67,1800.65
1699566756.7510219,301.49,1800.85
1699566756.8239677,310.95,1822.14
1699566756.8951905,301.63,1798.09
1699566756.9674428,303.47,1820.37
1699566757.0392048,308.50,1805.56
1699566757.1109958,312.47,1800.56
1699566757.18302,320.86,1817.27
1699566757.2575865,305.41,1800.16
1699566757.3270974,308.24,1820.91
1699566757.3995676,309.78,1798.68
1699566757.4713018,311.00,1799.58
1699566757.5428286,315.89,1819.08
1699566757.6146765,299.24,1802.76
1699566757.6897075,301.44,1819.90
1699566757.759454,303.37,1802.34
1699566757.831358,306.67,1799.26
1699566757.9050772,317.30,1820.28
1699566757.9760268,300.03,1801.21
1699566758.0470035,299.96,1817.27
1699566758.1187794,306.00,1796.65
1699566758.19152,307.72,1801.57
1699566758.263183,322.46,1819.59
1699566758.335158,306.08,1800.03
1699566758.4090822,309.31,1819.17
1699566758.4792864,310.49,1799.96
1699566758.551045,313.42,1798.48
1699566758.6228642,321.09,1820.38
1699566758.6955512,301.58,1798.23
1699566758.7669427,297.41,1820.96
1699566758.8408773,301.75,1797.95
1699566758.9111862,303.56,1799.30
1699566758.9832761,322.62,1819.41
1699566759.055034,298.53,1797.67
1699566759.1274939,297.55,1816.64
1699566759.1992564,296.29,1798.11
1699566759.273592,304.84,1799.73
1699566759.3427854,340.13,1818.12
1699566759.4158218,316.23,1798.43
1699566759.489206,316.65,1816.28
1699566759.5591204,315.20,1797.21
1699566759.6316545,305.80,1798.64
1699566759.7034,321.72,1819.61
1699566759.7750244,303.65,1802.95
1699566759.8469172,303.66,1819.13
1699566759.9186478,301.19,1803.03
1699566759.991481,305.58,1801.01
1699566760.0630848,319.98,1821.93
1699566760.1358328,307.63,1800.29
1699566760.2069578,306.27,1816.79
1699566760.279051,307.71,1799.48
1699566760.3512576,312.20,1800.69
1699566760.4233394,339.47,1819.54
1699566760.4949615,330.99,1796.58
1699566760.5668714,328.48,1817.08
1699566760.6412873,322.82,1797.33
1699566760.7109811,331.23,1799.86
1699566760.7834594,344.32,1817.07
1699566760.8573823,316.35,1796.65
1699566760.9275756,300.19,1820.03
1699566760.999582,292.66,1799.56
1699566761.071749,300.66,1800.82
1699566761.143221,319.92,1822.28
1699566761.215579,297.61,1800.99
1699566761.28729,303.54,1821.43
1699566761.3594677,301.22,1803.48
1699566761.430756,307.18,1801.06
1699566761.5027463,326.77,1820.56
1699566761.5766382,314.05,1799.09
1699566761.6481724,323.38,1825.17
1699566761.7190046,332.32,1798.85
1699566761.790943,332.54,1797.78
1699566761.8634071,346.16,1822.15
1699566761.9357688,317.72,1802.16
1699566762.0072954,316.81,1822.65
1699566762.0792274,314.10,1800.59
1699566762.151216,320.64,1799.69
1699566762.2242124,335.15,1819.77
1699566762.2955935,308.36,1795.77
1699566762.367319,310.81,1819.65
1699566762.4385161,307.82,1799.89
1699566762.5111494,317.66,1800.97
1699566762.5826004,338.52,1820.22
1699566762.6551375,309.21,1802.32
1699566762.7276294,315.36,1818.96
1699566762.7990315,313.23,1799.17
1699566762.870618,318.22,1797.39
1699566762.9426801,338.11,1820.81
1699566763.0149522,314.66,1799.19
1699566763.0872724,314.77,1822.72
1699566763.159404,313.31,1799.95
1699566763.2313602,338.67,1799.30
1699566763.3032534,362.87,1821.42
1699566763.3749328,328.23,1799.27
1699566763.4473834,320.97,1820.37
1699566763.5199776,323.49,1798.07
1699566763.5919418,326.89,1802.86
1699566763.6629524,347.57,1821.16
1699566763.7354383,314.30,1798.40
1699566763.8072758,316.20,1818.65
1699566763.8796797,312.73,1797.94
1699566763.9506865,317.95,1798.40
1699566764.0256455,334.44,1819.18
1699566764.0954373,310.73,1799.06
1699566764.166882,313.31,1817.58
1699566764.2392852,304.00,1801.67
1699566764.3124795,312.83,1797.54
1699566764.38375,327.19,1819.84
1699566764.4546025,304.74,1799.44
1699566764.529171,305.03,1815.15
1699566764.5994372,299.43,1800.92
1699566764.6710436,306.30,1802.08
1699566764.7440073,325.24,1820.60
1699566764.815564,303.80,1799.58
1699566764.8874645,308.98,1813.01
1699566764.959931,306.52,1797.83
1699566765.0314188,316.77,1800.55
1699566765.1031313,329.11,1818.19
1699566765.1776202,307.39,1798.94
1699566765.247128,307.62,1814.86
1699566765.3192987,309.10,1799.16
1699566765.39161,309.03,1801.98
1699566765.462666,327.22,1821.28
1699566765.5354438,304.36,1798.15
1699566765.60701,308.74,1812.88
1699566765.6792302,303.04,1798.78
1699566765.7511408,307.40,1798.14
1699566765.8236032,326.37,1816.46
1699566765.8965096,304.95,1799.05
1699566765.967949,305.24,1816.51
1699566766.0391378,302.88,1799.57
1699566766.1127267,311.95,1802.59
1699566766.183628,317.23,1820.61
1699566766.2550585,297.31,1800.23
1699566766.3289495,301.69,1811.79
1699566766.3994818,299.41,1800.41
1699566766.4710064,310.46,1799.20
1699566766.545057,329.33,1819.36
1699566766.615694,337.40,1801.55
1699566766.6873307,512.31,1813.47
1699566766.7593572,590.41,1798.10
1699566766.8315105,507.95,1797.90
1699566766.9033406,461.94,1817.39
1699566766.976251,830.47,1797.02
1699566767.0471523,991.24,1814.48
1699566767.1189165,979.14,1796.40
1699566767.1914823,728.11,1796.93
1699566767.2636385,634.00,1817.29
1699566767.3352938,638.65,1798.16
1699566767.4067883,675.10,1810.73
1699566767.4797506,696.57,1796.63
1699566767.5510676,679.90,1796.30
1699566767.6237242,614.75,1817.97
1699566767.69511,596.37,1797.77
1699566767.7674477,583.52,1807.71
1699566767.8385627,587.43,1798.07
1699566767.9141514,578.15,1797.17
1699566767.9826677,605.87,1820.31
1699566768.0558586,608.57,1794.51
1699566768.1284826,638.66,1806.62
1699566768.1986291,637.85,1801.16
1699566768.27082,614.28,1799.12
1699566768.3427694,612.05,1817.73
1699566768.4165862,577.90,1802.16
1699566768.486565,568.77,1803.87
1699566768.5594816,591.97,1798.96
1699566768.631444,549.86,1796.99
1699566768.7029943,563.92,1816.08
1699566768.7751958,534.61,1798.06
1699566768.8471668,557.21,1807.96
1699566768.91897,573.99,1796.05
1699566768.9913328,539.39,1798.29
1699566769.0631118,552.05,1820.42
1699566769.1352873,533.86,1799.01
1699566769.207377,550.26,1803.75
1699566769.2804737,557.44,1794.69
1699566769.3506274,526.65,1798.85
1699566769.4234943,539.37,1816.88
1699566769.4958136,530.64,1802.64
1699566769.5676792,552.24,1802.50
1699566769.639002,561.10,1795.84
1699566769.7108767,528.97,1799.45
1699566769.7834978,543.26,1818.03
1699566769.8551233,533.88,1800.46
1699566769.9287286,552.70,1804.93
1699566769.9992535,556.83,1795.77
1699566770.071068,537.34,1801.73
1699566770.1431196,553.86,1820.29
1699566770.2151465,536.60,1797.51
1699566770.2874727,562.08,1800.75
1699566770.3589532,565.99,1798.24
1699566770.4320428,529.64,1799.64
1699566770.5035675,541.10,1818.36
1699566770.5751064,528.64,1802.44
1699566770.6493206,547.56,1798.13
1699566770.7191021,556.99,1792.37
1699566770.791529,524.37,1800.92
1699566770.86381,542.96,1821.52
1699566770.9349039,533.24,1798.99
1699566771.0077908,547.15,1797.30
1699566771.0801616,559.94,1794.00
1699566771.150975,526.99,1801.53
1699566771.2231464,543.84,1819.30
1699566771.2960353,531.92,1800.95
1699566771.3674586,554.61,1801.58
1699566771.4390378,558.17,1794.97
1699566771.5135489,525.08,1799.81
1699566771.58361,537.56,1818.29
1699566771.6551049,526.34,1798.02
1699566771.7275877,538.40,1794.11
1699566771.7993436,548.38,1792.16
1699566771.8717525,518.56,1801.33
1699566771.942862,531.83,1822.01
1699566772.0176783,520.24,1797.77
1699566772.0874176,534.67,1795.92
1699566772.1589565,544.14,1791.16
1699566772.2315185,517.79,1800.06
1699566772.3038497,528.52,1818.67
1699566772.375676,512.16,1799.33
1699566772.4480073,525.78,1794.75
1699566772.5198598,526.79,1788.60
1699566772.591083,502.00,1797.92
1699566772.664935,513.73,1819.87
1699566772.7357476,500.93,1799.39
1699566772.807643,517.74,1795.93
1699566772.87879,524.07,1792.42
1699566772.9528832,496.55,1798.57
1699566773.023809,516.22,1819.52
1699566773.0966659,498.84,1800.74
1699566773.1675646,512.63,1789.41
1699566773.2394497,538.21,1786.09
1699566773.3118072,512.71,1801.77
1699566773.3854673,535.61,1820.19
1699566773.4556463,514.15,1798.57
1699566773.5278313,528.35,1789.45
1699566773.6005392,537.58,1787.83
1699566773.6715393,511.37,1798.92
1699566773.7426834,527.68,1819.92
1699566773.8176696,512.42,1797.63
1699566773.8873134,526.60,1787.56
1699566773.9590733,537.14,1788.22
1699566774.0314803,527.93,1799.34
1699566774.1036017,547.70,1819.79
1699566774.1760192,530.49,1800.64
1699566774.247643,537.37,1787.67
1699566774.3197193,542.10,1789.81
1699566774.3913176,514.42,1799.42
1699566774.46373,541.91,1819.52
1699566774.5360074,521.11,1799.83
1699566774.607203,543.09,1783.11
1699566774.6799014,541.08,1788.66
1699566774.754794,520.30,1800.41
1699566774.82332,641.02,1821.26
1699566774.895918,502.67,1800.61
1699566774.967919,485.61,1780.02
1699566775.0401878,485.82,1785.15
1699566775.1119845,496.91,1800.59
1699566775.185791,539.52,1817.40
1699566775.2560136,501.22,1799.44
1699566775.3273273,510.46,1780.28
1699566775.3996623,512.61,1789.62
1699566775.471256,476.19,1797.89
1699566775.5425687,499.49,1818.35
1699566775.6149054,479.63,1799.35
1699566775.686956,502.49,1776.41
1699566775.759785,584.21,1787.03
1699566775.8313293,574.08,1798.61
1699566775.9032185,599.43,1821.17
1699566775.9753463,602.71,1798.37
1699566776.0480754,607.86,1777.21
1699566776.1199884,620.15,1796.89
1699566776.1913328,607.42,1799.30
1699566776.2637463,645.63,1821.40
1699566776.335294,601.51,1798.52
1699566776.4081893,578.36,1779.40
1699566776.4795043,574.20,1793.07
1699566776.554397,534.45,1802.70
1699566776.6228242,552.29,1819.21
1699566776.6960313,513.66,1800.22
1699566776.768291,490.42,1778.45
1699566776.8394933,479.92,1793.86
1699566776.91157,442.75,1800.40
1699566776.9839904,447.27,1821.59
1699566777.0559032,429.01,1801.87
1699566777.1275146,428.23,1776.95
1699566777.1998854,420.00,1796.30
1699566777.2707758,394.48,1801.15
1699566777.342407,394.75,1821.30
1699566777.4157393,385.48,1796.80
1699566777.4895947,403.05,1781.48
1699566777.5592923,399.90,1797.48
1699566777.6312995,365.31,1801.30
1699566777.703449,369.08,1819.60
1699566777.7749138,365.61,1802.96
1699566777.8468606,378.72,1780.99
1699566777.9190474,388.22,1800.28
1699566777.9912577,364.32,1801.80
1699566778.0628088,368.90,1822.39
1699566778.1375768,363.51,1804.11
1699566778.20707,377.85,1782.07
1699566778.279346,383.38,1800.85
1699566778.3523586,359.85,1801.12
1699566778.4229033,365.53,1817.63
1699566778.4952383,355.93,1800.55
1699566778.5690806,366.79,1786.54
1699566778.6399243,370.88,1799.98
1699566778.711697,351.61,1799.82
1699566778.7857459,360.45,1820.58
1699566778.8554368,356.23,1800.04
1699566778.926095,364.62,1788.18
1699566778.9991658,371.14,1808.04
1699566779.0714672,356.61,1798.76
1699566779.1429267,369.42,1823.22
1699566779.2153056,356.37,1802.39
1699566779.2884707,364.03,1794.25
1699566779.358778,364.96,1813.84
1699566779.4310107,348.99,1799.99
1699566779.5044022,378.86,1819.78
1699566779.5755765,380.32,1800.56
1699566779.6470363,381.28,1795.51
1699566779.72005,381.16,1818.03
1699566779.7914147,361.23,1799.32
1699566779.8625822,381.13,1818.78
1699566779.9355073,369.01,1802.95
1699566780.0067103,367.55,1800.30
1699566780.079529,359.12,1821.32
1699566780.1544113,296.52,1799.79
1699566780.2236192,289.26,1817.37
1699566780.2950687,284.39,1800.11
1699566780.3669505,289.92,1800.95
1699566780.440761,292.82,1822.67
1699566780.5115974,267.67,1801.97
1699566780.5833678,290.18,1818.99
1699566780.6581326,287.92,1801.46
1699566780.7274883,295.59,1801.03
1699566780.7994325,309.44,1820.60
1699566780.8721535,299.15,1803.08
1699566780.9426901,301.15,1819.67
1699566781.0153475,265.04,1799.89
1699566781.0876107,259.27,1797.93
1699566781.159469,297.91,1819.04
1699566781.2310758,403.25,1800.50
1699566781.304829,633.10,1819.12
1699566781.3757567,752.93,1799.12
1699566781.4477677,712.72,1799.27
1699566781.5195844,668.53,1819.17
1699566781.5909913,651.72,1796.41
1699566781.6631563,688.00,1817.61
1699566781.7351604,773.02,1801.15
1699566781.8096032,980.47,1802.39
1699566781.8793366,1113.89,1819.52
1699566781.9515126,1045.29,1799.56
1699566782.024992,963.12,1822.26
1699566782.0947418,828.37,1801.79
1699566782.167763,699.46,1798.69
1699566782.2407537,684.75,1819.63
1699566782.3106558,1151.05,1797.37
1699566782.3840082,1210.50,1818.80
1699566782.4565306,1064.97,1798.56
1699566782.5274968,688.72,1799.60
1699566782.5994527,656.94,1823.05
1699566782.6729877,653.31,1801.09
1699566782.742639,641.41,1817.46
1699566782.8154492,579.44,1800.78
1699566782.8871095,493.86,1799.50
1699566782.959649,487.82,1817.14
1699566783.0309296,516.99,1801.24
1699566783.102837,559.35,1820.46
1699566783.1759248,580.60,1798.97
1699566783.2474563,510.97,1800.91
1699566783.3193188,615.20,1817.25
1699566783.3916144,976.30,1797.87
1699566783.4628475,1006.08,1816.40
1699566783.5353827,906.07,1796.30
1699566783.6077788,821.47,1798.57
1699566783.6794848,765.00,1817.65
1699566783.751554,717.44,1798.43
1699566783.8235393,888.10,1818.51
1699566783.8956327,804.85,1800.70
1699566783.9670174,486.77,1798.25
1699566784.039843,329.87,1817.09
1699566784.1107557,259.75,1800.75
1699566784.1832802,249.15,1818.99
1699566784.255111,238.68,1800.40
1699566784.3270004,240.00,1801.88
1699566784.3990047,246.67,1820.63
1699566784.4709811,233.91,1802.80
1699566784.5428388,235.31,1821.15
1699566784.6152933,232.91,1800.34
1699566784.6874468,243.09,1800.18
1699566784.7616856,255.78,1820.51
1699566784.8313515,239.78,1800.16
1699566784.9032347,242.88,1822.64
1699566784.9753788,243.82,1799.43
1699566785.0471203,262.50,1800.35
1699566785.1192868,274.45,1822.09
1699566785.1926854,252.47,1796.08
1699566785.2630525,251.55,1820.78
1699566785.3350408,256.26,1799.61
1699566785.4076228,261.54,1800.23
1699566785.4795835,277.71,1819.91
1699566785.5514178,250.68,1800.38
1699566785.6234019,258.04,1819.12
1699566785.6960094,259.47,1800.07
1699566785.766696,267.52,1800.10
1699566785.8394015,281.07,1819.07
1699566785.9113536,264.60,1800.52
1699566785.9828162,262.76,1820.66
1699566786.0551305,267.76,1801.93
1699566786.1276436,269.19,1799.00
1699566786.199334,283.10,1820.51
1699566786.2739837,270.73,1801.49
1699566786.3428335,272.06,1822.65
1699566786.4147148,275.47,1798.46
1699566786.4875824,292.76,1798.73
1699566786.5610628,317.62,1819.37
1699566786.6316106,309.06,1801.13
1699566786.7030532,324.94,1819.94
1699566786.7760088,343.88,1800.18
1699566786.8476021,351.30,1801.14
1699566786.9196813,385.84,1818.14
1699566786.991437,353.52,1799.13
1699566787.0634859,344.56,1816.33
1699566787.1350965,338.76,1796.98
1699566787.2095754,335.75,1799.05
1699566787.2795577,351.95,1821.39
1699566787.3511565,322.36,1798.11
1699566787.42466,311.86,1815.21
1699566787.4956846,325.91,1803.19
1699566787.5669396,339.58,1798.77
1699566787.6414378,374.38,1818.23
1699566787.7116504,357.02,1799.60
1699566787.7833414,352.95,1816.03
1699566787.8558335,352.25,1800.23
1699566787.9272554,351.99,1797.88
1699566787.9993775,381.57,1824.32
1699566788.0709853,351.86,1799.59
1699566788.147195,350.93,1811.94
1699566788.2152414,347.53,1798.09
1699566788.2873983,349.65,1798.75
1699566788.3592825,365.57,1818.18
1699566788.4309402,345.97,1798.48
1699566788.5033743,355.52,1807.44
1699566788.5748816,359.60,1799.47
1699566788.6475737,370.02,1798.15
1699566788.719541,414.89,1819.56
1699566788.7915504,415.80,1798.75
1699566788.8635287,427.46,1798.94
1699566788.9356241,448.54,1795.38
1699566789.0100567,479.78,1800.29
1699566789.0797899,554.34,1819.67
1699566789.1516004,510.00,1798.90
1699566789.2232974,486.18,1797.88
1699566789.2951913,477.87,1792.92
1699566789.3671405,464.56,1800.54
1699566789.439939,505.00,1822.63
1699566789.5120494,463.59,1799.58
1699566789.5833807,447.82,1789.66
1699566789.6551447,451.32,1787.85
1699566789.7276404,449.78,1799.77
1699566789.799181,490.53,1821.02
1699566789.871647,460.87,1800.64
1699566789.9452333,450.45,1789.70
1699566790.015701,459.98,1790.06
1699566790.0877528,460.85,1799.81
1699566790.1606195,500.66,1818.63
1699566790.2310112,474.21,1799.01
1699566790.3037174,453.14,1785.49
1699566790.374969,454.12,1786.96
1699566790.4478264,452.88,1797.36
1699566790.5187771,483.18,1817.05
1699566790.5915964,442.97,1798.27
1699566790.6635096,430.73,1779.95
1699566790.735637,421.22,1784.99
1699566790.807034,413.63,1798.54
1699566790.8797445,440.49,1819.87
1699566790.9515722,415.93,1799.68
1699566791.0233357,409.98,1780.17
1699566791.0971444,414.64,1785.39
1699566791.167118,418.59,1799.87
1699566791.2391021,450.01,1816.82
1699566791.3130198,433.20,1802.43
1699566791.3834012,431.77,1777.97
1699566791.4551954,436.48,1787.86
1699566791.5286756,447.04,1798.70
1699566791.599434,480.79,1818.23
1699566791.6708877,459.86,1797.52
1699566791.7428591,435.74,1780.66
1699566791.8147962,433.57,1789.73
1699566791.886712,440.12,1798.53
1699566791.9590862,476.11,1820.39
1699566792.0306964,454.92,1798.54
1699566792.1032488,429.85,1777.05
1699566792.1749892,429.82,1788.14
1699566792.2476354,428.92,1798.15
1699566792.3188431,467.44,1818.09
1699566792.3911498,459.59,1796.15
1699566792.463936,420.38,1776.01
1699566792.5357184,417.96,1790.81
1699566792.6072164,424.85,1799.50
1699566792.6796494,478.93,1817.67
1699566792.750973,450.94,1799.06
1699566792.8234324,432.69,1776.80
1699566792.8949919,428.98,1793.72
1699566792.9670508,441.35,1800.62
1699566793.0397542,480.89,1818.14
1699566793.1110003,448.85,1800.40
1699566793.1838028,427.52,1775.63
1699566793.2557366,411.15,1792.98
1699566793.3274956,392.76,1800.32
1699566793.399042,417.54,1817.52
1699566793.4719892,386.97,1798.26
1699566793.542542,353.57,1775.39
1699566793.6147585,337.83,1793.60
1699566793.6867871,335.14,1798.76
1699566793.7592788,362.51,1820.34
1699566793.8327124,353.36,1802.22
1699566793.9030278,334.23,1775.50
1699566793.9755466,328.75,1796.42
1699566794.0487173,333.79,1798.41
1699566794.1191058,362.15,1816.73
1699566794.191626,351.26,1800.73
1699566794.2644606,333.18,1779.42
1699566794.3349798,332.09,1799.03
1699566794.4072678,316.14,1800.45
1699566794.4813116,343.35,1818.65
1699566794.551105,357.45,1798.71
1699566794.623921,350.31,1782.37
1699566794.6959,336.22,1799.29
1699566794.7683322,334.63,1800.54
1699566794.8394165,369.46,1819.58
1699566794.912676,366.70,1798.41
1699566794.9835413,357.98,1788.02
1699566795.0551429,361.98,1801.29
1699566795.1275506,361.16,1797.96
1699566795.199201,377.87,1817.98
1699566795.2710285,365.62,1800.70
1699566795.3428943,356.93,1788.52
1699566795.4150279,362.37,1809.82
1699566795.4876535,362.47,1799.51
1699566795.5594578,364.04,1817.45
1699566795.633443,355.87,1803.28
1699566795.7034755,340.02,1791.72
1699566795.7756054,336.90,1809.77
1699566795.8476393,333.46,1798.83
1699566795.9196506,350.78,1818.33
1699566795.9917471,340.69,1799.08
1699566796.0650904,313.72,1797.22
1699566796.1354864,314.41,1813.86
1699566796.2068985,304.90,1800.49
1699566796.2794461,324.16,1818.42
1699566796.3517823,323.54,1799.54
1699566796.4239287,301.84,1799.74
1699566796.4958239,299.64,1821.75
1699566796.5690491,296.58,1802.21
1699566796.6393871,312.14,1819.85
1699566796.7109556,313.15,1800.11
1699566796.785264,301.18,1798.59
1699566796.8551595,305.53,1823.06
1699566796.9274967,299.93,1798.60
1699566796.9990835,319.17,1821.03
1699566797.071038,320.55,1801.53
1699566797.1429482,308.62,1798.52
1699566797.2161608,305.38,1822.03
1699566797.287594,300.49,1800.62
1699566797.3589995,313.88,1817.41
1699566797.4311972,315.57,1797.99
1699566797.503657,301.33,1796.38
1699566797.5757565,302.15,1818.38
1699566797.6498985,300.82,1798.59
1699566797.719024,301.44,1819.19
1699566797.7912905,297.30,1800.30
1699566797.8630772,292.19,1799.51
1699566797.9351082,294.81,1820.95
1699566798.00726,285.60,1800.74
1699566798.0790725,296.82,1819.94
1699566798.1517696,292.85,1798.72
1699566798.2229888,278.61,1798.89
1699566798.2957327,284.40,1820.88
1699566798.3671317,274.85,1797.23
1699566798.43891,278.50,1820.20
1699566798.5118768,282.46,1797.78
1699566798.5838008,276.57,1799.63
1699566798.6555717,283.84,1818.06
1699566798.7274268,270.49,1798.98
1699566798.8000073,272.63,1816.70
1699566798.8716,275.50,1799.23
1699566798.9427702,275.99,1799.32
1699566799.0166428,276.90,1817.97
1699566799.0872686,267.15,1802.88
1699566799.1599972,268.07,1819.74
1699566799.231974,267.44,1802.14
1699566799.30426,268.78,1801.24
1699566799.3753982,271.12,1818.81
1699566799.4467957,255.88,1801.64
1699566799.5198438,252.51,1821.14
1699566799.5916448,259.90,1798.59
1699566799.663359,258.93,1799.89
1699566799.736976,263.97,1819.70
1699566799.8078187,252.43,1802.89
1699566799.8794103,248.66,1820.15
1699566799.9533548,249.19,1798.49
1699566800.0231533,254.73,1800.38
1699566800.0961833,259.72,1819.33
1699566800.1679382,245.21,1799.85
1699566800.2390761,241.61,1820.87
1699566800.3113313,243.21,1801.45
1699566800.3830585,248.13,1797.40
1699566800.455837,252.32,1819.44
1699566800.5278873,245.40,1799.96
1699566800.5994632,242.88,1820.46
1699566800.6718378,239.90,1800.22
1699566800.7442203,228.54,1799.78
1699566800.8150978,243.95,1816.02
1699566800.887316,231.60,1799.62
1699566800.9593296,230.47,1818.35
1699566801.0310435,232.03,1800.77
1699566801.1048036,240.30,1798.70
1699566801.1758006,250.13,1821.12
1699566801.2474341,235.70,1799.60
1699566801.3190093,234.61,1820.12
1699566801.3918154,230.84,1798.07
1699566801.4629683,242.14,1799.53
1699566801.5377066,246.85,1818.20
1699566801.6082792,233.64,1799.08
1699566801.6795287,232.78,1819.28
1699566801.753785,232.36,1795.90
1699566801.8236744,238.54,1799.03
1699566801.8949375,250.08,1819.09
1699566801.9698105,230.43,1798.09
1699566802.0393245,230.62,1819.75
1699566802.110751,231.44,1800.50
1699566802.1832569,238.74,1802.58
1699566802.2552717,245.71,1822.26
1699566802.3276236,228.81,1799.38
1699566802.4020178,228.92,1819.62
1699566802.4720058,224.60,1800.31
1699566802.5428195,235.22,1798.12
1699566802.617743,247.54,1817.60
1699566802.6888852,236.34,1800.14
1699566802.7589753,234.71,1818.09
1699566802.8314352,233.51,1799.42
1699566802.9035804,243.37,1798.61
1699566802.9749541,251.80,1819.43
1699566803.0471797,238.08,1800.39
1699566803.1201208,239.87,1818.62
1699566803.1916323,232.00,1798.45
1699566803.2631032,238.16,1798.45
1699566803.3382044,245.00,1819.48
1699566803.4073675,218.46,1798.88
1699566803.4797552,236.51,1822.42
1699566803.5510743,244.66,1798.95
1699566803.623111,239.61,1800.75
1699566803.6951108,231.81,1818.17
1699566803.7683713,218.23,1799.60
1699566803.8393133,237.70,1820.90
1699566803.9108562,229.21,1798.06
1699566803.9857142,240.60,1799.60
1699566804.0553854,258.33,1817.74
1699566804.1273642,249.26,1799.23
1699566804.1994648,265.07,1818.06
1699566804.2732124,293.97,1800.99
1699566804.34302,296.55,1797.77
1699566804.4147673,281.51,1817.98
1699566804.488443,295.50,1798.84
1699566804.5599759,334.48,1821.92
1699566804.631014,349.24,1798.06
1699566804.7033737,354.28,1797.24
1699566804.7751615,385.50,1821.63
1699566804.847385,368.28,1800.94
1699566804.919647,372.50,1816.29
1699566804.9911118,386.79,1794.21
1699566805.0628273,248.38,1797.97
1699566805.1357388,413.36,1818.54
1699566805.2074172,656.14,1797.72
1699566805.279676,828.27,1817.31
1699566805.350848,635.48,1797.79
1699566805.423433,385.50,1795.06
1699566805.495427,384.80,1816.55
1699566805.5670214,416.00,1798.39
1699566805.6398976,378.90,1806.56
1699566805.7114313,313.14,1796.86
1699566805.7835312,268.06,1796.70
1699566805.8585436,238.27,1815.19
1699566805.9273796,220.61,1795.24
1699566805.999376,224.67,1798.52
1699566806.073502,212.75,1790.98
1699566806.143185,194.56,1798.40
1699566806.2158308,194.42,1817.70
1699566806.2874358,184.90,1798.34
1699566806.3609223,189.34,1790.90
1699566806.431593,190.27,1788.15
1699566806.5034304,183.71,1800.01
1699566806.5751033,183.13,1818.72
1699566806.6482282,183.41,1799.30
1699566806.7191548,193.18,1786.57
1699566806.7934065,187.19,1786.94
1699566806.8633616,175.33,1798.89
1699566806.935515,174.08,1819.99
1699566807.0070171,173.05,1799.43
1699566807.0794787,185.93,1780.86
1699566807.1514,181.24,1787.11
1699566807.22425,172.05,1798.60
1699566807.295225,171.74,1818.52
1699566807.3677099,170.69,1797.70
1699566807.4416325,182.82,1778.03
1699566807.5107584,186.57,1787.71
1699566807.5834389,175.66,1801.08
1699566807.6552477,175.61,1819.70
1699566807.7277906,169.54,1797.08
1699566807.7993903,182.54,1776.21
1699566807.8706207,181.69,1789.94
1699566807.9436183,164.56,1799.76
1699566808.0150323,169.09,1820.78
1699566808.0873034,173.99,1799.80
1699566808.1594446,179.42,1777.37
1699566808.2316387,176.77,1793.37
1699566808.3032665,166.35,1796.78
1699566808.3757467,167.94,1815.30
1699566808.4469516,164.97,1799.99
1699566808.518936,180.35,1778.72
1699566808.592653,184.81,1794.90
1699566808.6627958,181.68,1797.35
1699566808.7353544,187.97,1816.48
1699566808.8069313,172.40,1798.87
1699566808.8791537,187.72,1776.07
1699566808.951368,189.39,1798.61
1699566809.0235982,190.81,1800.58
1699566809.0952322,201.72,1820.08
1699566809.1669314,193.93,1800.95
1699566809.239337,202.35,1787.29
1699566809.3114932,203.84,1806.21
1699566809.3831515,201.49,1802.85
1699566809.4577181,211.38,1820.08
1699566809.5273225,206.01,1801.56
1699566809.599423,212.55,1791.99
1699566809.671239,210.73,1811.97
1699566809.7430224,191.81,1797.45
1699566809.815559,220.19,1820.15
1699566809.8874354,215.73,1799.69
1699566809.9595463,235.04,1798.18
1699566810.0314407,227.94,1819.43
1699566810.1032317,204.54,1797.33
1699566810.1756015,211.70,1818.29
1699566810.2470086,200.42,1798.30
1699566810.3188386,207.70,1798.28
1699566810.3919349,216.48,1818.99
1699566810.4638157,202.90,1802.98
1699566810.5351164,187.40,1821.11
1699566810.6077406,164.96,1801.35
1699566810.6794074,166.19,1802.77
1699566810.7519033,154.16,1818.41
1699566810.8255215,146.45,1798.73
1699566810.8950207,145.72,1822.99
1699566810.9670463,142.20,1799.57
1699566811.040734,153.38,1800.47
1699566811.1119933,148.18,1819.79
1699566811.1830225,140.72,1800.53
1699566811.257249,152.85,1819.83
1699566811.327604,147.00,1798.21
1699566811.3991573,148.60,1799.40
1699566811.4711435,149.09,1817.12
1699566811.5425606,145.31,1799.32
1699566811.615321,150.32,1822.83
1699566811.6874094,139.59,1801.14
1699566811.7595587,150.05,1801.11
1699566811.8308754,144.83,1818.71
1699566811.9029486,140.93,1797.42
1699566811.9758012,150.59,1818.38
1699566812.0477288,144.88,1801.55
1699566812.1198754,151.42,1801.37
1699566812.1917107,158.11,1823.33
1699566812.262974,148.85,1800.04
1699566812.335314,166.52,1821.80
1699566812.409178,157.19,1798.93
1699566812.4789937,157.63,1799.07
1699566812.5517793,158.47,1820.55
1699566812.6245775,154.82,1800.29
1699566812.6950638,167.41,1817.52
1699566812.767785,156.71,1798.97
1699566812.8394072,155.76,1801.47
1699566812.9118464,157.94,1820.67
1699566812.9833221,151.78,1800.23
1699566813.0557973,162.70,1820.80
1699566813.1273017,154.61,1798.70
1699566813.199512,154.91,1802.61
1699566813.2716012,154.91,1822.81
1699566813.3428578,152.78,1801.66
1699566813.4150174,164.11,1817.28
1699566813.487666,154.97,1799.75
1699566813.559502,154.63,1800.00
1699566813.631456,154.73,1820.23
1699566813.7032523,151.47,1800.30
1699566813.7774441,168.09,1820.18
1699566813.8472285,156.60,1798.89
1699566813.9189615,154.04,1800.08
1699566813.991494,155.16,1822.13
1699566814.0629451,157.27,1801.36
1699566814.135529,173.85,1820.09
1699566814.2100186,166.81,1798.27
1699566814.2798245,163.01,1802.55
1699566814.3509674,158.98,1819.24
1699566814.4237986,156.98,1797.91
1699566814.495494,181.68,1818.81
1699566814.567436,167.21,1799.35
1699566814.639944,165.11,1802.85
1699566814.7132003,157.09,1821.91
1699566814.7841516,151.61,1802.66
1699566814.8552146,171.02,1821.18
1699566814.9275775,157.88,1801.24
1699566814.999083,151.88,1800.46
1699566815.07137,140.20,1822.20
1699566815.1427894,132.33,1798.91
1699566815.2157128,153.04,1820.66
1699566815.287696,140.78,1800.74
1699566815.3596609,140.15,1795.93
1699566815.432581,134.12,1822.38
1699566815.5043302,132.27,1798.38
1699566815.575249,146.01,1820.25
1699566815.650122,141.85,1799.42
1699566815.7191424,145.90,1801.86
1699566815.790944,152.71,1820.42
1699566815.8655102,156.75,1800.15
1699566815.9348412,179.41,1821.21
1699566816.008037,170.89,1800.80
1699566816.0827403,177.59,1800.98
1699566816.1513324,214.18,1819.84
1699566816.2240796,231.46,1797.78
1699566816.2961516,254.05,1817.85
1699566816.3681316,216.85,1802.57
1699566816.4403713,187.83,1802.72
1699566816.5120018,182.37,1817.03
1699566816.5841622,163.20,1798.44
1699566816.6553917,171.72,1821.48
1699566816.7272818,159.44,1798.71
1699566816.8017385,154.83,1798.56
1699566816.8721123,151.59,1818.04
1699566816.9427135,149.46,1798.28
1699566817.016153,164.89,1814.05
1699566817.0885239,155.14,1797.73
1699566817.1592634,149.62,1801.19
1699566817.2342389,152.59,1817.70
1699566817.3041482,144.20,1798.60
1699566817.3760846,156.00,1814.11
1699566817.4499326,149.11,1798.17
1699566817.5199542,147.90,1798.04
1699566817.591406,143.80,1821.14
1699566817.6654263,143.46,1800.51
1699566817.7357588,153.90,1808.69
1699566817.8073685,142.94,1798.19
1699566817.8796265,140.21,1799.70
1699566817.9516108,139.06,1820.40
1699566818.0241163,140.62,1797.75
1699566818.095687,148.19,1803.01
1699566818.167022,144.50,1797.80
1699566818.2395658,147.02,1799.89
1699566818.3116493,139.99,1819.40
1699566818.3834634,139.81,1799.51
1699566818.4558566,147.90,1802.44
1699566818.528914,142.43,1799.35
1699566818.5990818,135.75,1796.79
1699566818.671628,134.44,1819.64
1699566818.7433186,134.59,1801.61
1699566818.8167164,143.06,1798.05
1699566818.8871343,139.46,1793.11
1699566818.9595907,142.02,1797.99
1699566819.0316262,157.94,1819.19
1699566819.1027858,161.51,1797.94
1699566819.1753285,169.44,1791.90
1699566819.2478034,165.13,1791.44
1699566819.3188431,162.12,1802.97
1699566819.3917108,168.45,1817.24
1699566819.4630263,160.75,1799.91
1699566819.5353274,168.83,1790.21
1699566819.6072943,163.81,1791.50
1699566819.680687,151.34,1800.33
1699566819.752197,152.32,1818.72
1699566819.8238986,150.33,1798.86
1699566819.8951964,164.47,1785.59
1699566819.9690094,157.38,1788.86
1699566820.039233,152.18,1800.25
1699566820.1119628,156.28,1819.47
1699566820.1863012,152.30,1799.91
1699566820.2552602,165.56,1785.38
1699566820.3275936,161.24,1783.90
1699566820.3994112,152.84,1797.90
1699566820.4709628,158.51,1815.59
1699566820.543279,171.31,1797.54
1699566820.616036,190.84,1783.52
1699566820.6882625,156.01,1782.54
1699566820.758985,182.07,1797.78
1699566820.8320851,221.47,1813.00
1699566820.9037373,337.49,1797.47
1699566820.97526,540.41,1788.82
1699566821.0472162,506.22,1780.34
1699566821.1204534,434.06,1794.35
1699566821.1922958,408.30,1819.28
1699566821.2631412,400.87,1797.92
1699566821.3363955,582.24,1780.38
1699566821.4075022,799.03,1781.34
1699566821.4798114,941.98,1796.13
1699566821.5521617,1023.55,1816.70
1699566821.6237013,1024.78,1797.43
1699566821.6960042,1023.83,1774.18
1699566821.7679365,1088.41,1781.94
1699566821.841511,1007.85,1795.14
1699566821.9115186,1087.11,1818.44
1699566821.983405,1067.36,1797.47
1699566822.0559745,1059.15,1776.47
1699566822.1279697,1101.84,1783.94
1699566822.1999352,1093.64,1793.54
1699566822.273024,1191.18,1815.86
1699566822.3434236,1158.24,1795.71
1699566822.416172,1105.36,1773.50
1699566822.488275,1028.10,1784.61
1699566822.560405,927.81,1794.44
1699566822.6313746,945.18,1814.01
1699566822.7057917,797.70,1797.97
1699566822.7765322,718.58,1769.05
1699566822.8480659,665.69,1789.65
1699566822.9195678,538.61,1794.01
1699566822.9926102,515.96,1816.41
1699566823.06364,420.55,1798.59
1699566823.135979,384.91,1769.35
1699566823.207709,363.41,1793.67
1699566823.2798433,331.66,1797.10
1699566823.352141,348.11,1817.63
1699566823.4235466,312.43,1795.58
1699566823.4953284,312.63,1776.98
1699566823.5675638,298.72,1792.60
1699566823.6405952,322.69,1799.96
1699566823.7118387,386.47,1817.18
1699566823.7859638,441.47,1798.02
1699566823.8560705,437.51,1780.18
1699566823.9278848,477.63,1797.09
1699566823.9996495,451.51,1797.93
1699566824.072014,458.23,1819.39
1699566824.143917,410.99,1798.82
1699566824.2149696,361.81,1785.41
1699566824.2882812,331.69,1806.87
1699566824.3593676,294.37,1798.69
1699566824.4312253,295.39,1818.35
1699566824.5044951,276.85,1797.35
1699566824.57589,273.97,1788.68
1699566824.6470685,265.55,1807.81
1699566824.719778,254.88,1798.62
1699566824.791906,264.42,1817.87
1699566824.8633513,250.08,1798.15
1699566824.9355245,263.13,1790.84
1699566825.0079176,292.42,1813.30
1699566825.079679,262.25,1798.26
1699566825.1512709,284.66,1818.13
1699566825.2236128,253.95,1797.43
1699566825.2954874,239.56,1793.46
1699566825.3673882,231.10,1819.14
1699566825.4397285,217.62,1798.65
1699566825.511942,204.70,1816.86
1699566825.5837727,176.35,1799.55
1699566825.6553862,168.82,1799.56
1699566825.72793,160.94,1815.13
1699566825.8008392,159.32,1798.61
1699566825.8733997,166.64,1814.11
1699566825.9437354,193.65,1800.81
1699566826.0157387,193.37,1798.94
1699566826.0886288,191.72,1818.17
1699566826.1589603,188.93,1799.01
1699566826.2315013,182.17,1817.66
1699566826.3064673,182.57,1798.64
1699566826.3753436,182.77,1798.91
1699566826.447282,171.74,1818.88
1699566826.52037,179.46,1797.86
1699566826.5924113,182.65,1818.70
1699566826.6633534,189.11,1799.40
1699566826.737593,190.40,1799.35
1699566826.807283,191.64,1818.00
1699566826.8796074,195.25,1798.69
1699566826.9518554,200.89,1819.80
1699566827.0236006,207.78,1797.59
1699566827.0956128,195.15,1798.57
1699566827.1667967,189.85,1814.53
1699566827.240798,181.12,1801.41
1699566827.3116016,180.97,1818.09
1699566827.3835685,176.62,1797.77
1699566827.45533,181.09,1799.50
1699566827.5276127,180.54,1818.90
1699566827.5991838,173.93,1796.98
1699566827.6715534,243.61,1818.66
1699566827.7441506,272.19,1800.32
1699566827.8149624,284.66,1796.98
1699566827.8876576,296.05,1821.19
1699566827.9591303,312.83,1800.10
1699566828.0311198,298.38,1815.91
1699566828.103674,256.34,1800.26
1699566828.1753156,229.56,1798.31
1699566828.24718,226.16,1817.21
1699566828.3204086,216.90,1799.53
1699566828.3914542,228.57,1817.50
1699566828.463603,204.19,1800.66
1699566828.537325,191.18,1801.65
1699566828.6072464,188.23,1820.73
1699566828.6796129,176.93,1797.26
1699566828.7521596,178.16,1817.89
1699566828.8239353,174.99,1798.00
1699566828.895239,177.93,1798.34
1699566828.9683383,181.63,1818.46
1699566829.039388,168.22,1796.98
1699566829.1118956,177.13,1822.04
1699566829.18308,174.24,1796.99
1699566829.2570505,175.83,1800.25
1699566829.3273485,182.39,1816.61
1699566829.3993926,171.93,1799.72
1699566829.4723098,177.92,1820.57
1699566829.5427294,171.75,1799.88
1699566829.616081,175.89,1798.91
1699566829.687371,180.32,1818.58
1699566829.7592013,166.41,1798.51
1699566829.8313866,176.47,1821.91
1699566829.904462,171.68,1796.84
1699566829.9752586,173.72,1800.08
1699566830.0472548,172.46,1819.68
1699566830.1193287,168.63,1798.70
1699566830.1916156,180.67,1818.82
1699566830.263063,177.23,1797.64
1699566830.3355873,181.34,1798.53
1699566830.4072337,182.87,1817.15
1699566830.4791946,179.26,1801.65
1699566830.5512679,189.21,1820.55
1699566830.625478,179.52,1797.98
1699566830.6951816,181.33,1799.90
1699566830.7665446,189.71,1818.27
1699566830.8395333,181.08,1797.08
1699566830.9117708,194.38,1818.26
1699566830.983735,182.42,1798.60
1699566831.055032,189.48,1799.46
1699566831.1271744,193.76,1819.16
1699566831.2000265,181.86,1801.68
1699566831.2713268,196.09,1820.64
1699566831.3438246,184.75,1798.31
1699566831.4155087,184.15,1798.32
1699566831.4874842,191.20,1818.61
1699566831.559956,173.24,1796.47
1699566831.6319244,184.99,1820.18
1699566831.7036924,173.22,1800.44
1699566831.7762744,176.54,1797.97
1699566831.8478239,183.32,1820.02
1699566831.920073,182.56,1799.00
1699566831.9909654,201.39,1816.15
1699566832.0636032,194.80,1795.20
1699566832.1354876,189.37,1800.11
1699566832.2093472,191.33,1817.66
1699566832.2797348,190.42,1797.54
1699566832.3510258,206.58,1816.80
1699566832.424063,195.69,1798.31
1699566832.4955773,192.24,1799.72
1699566832.5676048,190.25,1819.85
1699566832.6414654,179.26,1799.27
1699566832.7109697,199.14,1808.60
1699566832.783759,179.03,1800.31
1699566832.8558712,164.27,1798.97
1699566832.9275851,192.36,1820.14
1699566832.9992,207.46,1799.46
1699566833.0720673,216.15,1799.41
1699566833.1435735,221.39,1791.50
1699566833.2155263,230.92,1796.01
1699566833.2891703,248.69,1818.27
1699566833.3614051,240.13,1798.62
1699566833.4325514,236.64,1796.02
1699566833.5038824,239.61,1789.58
1699566833.5755086,236.32,1799.46
1699566833.6476712,255.38,1819.19
1699566833.7197504,244.15,1801.41
1699566833.7913787,241.46,1784.90
1699566833.8630137,239.44,1787.18
1699566833.9356775,236.56,1797.87
1699566834.009671,247.54,1818.99
1699566834.0798717,238.29,1797.86
1699566834.151415,226.32,1776.99
1699566834.222869,221.97,1786.28
1699566834.295446,224.96,1801.18
1699566834.3677714,246.12,1818.19
1699566834.4413679,239.33,1799.27
1699566834.5114138,243.54,1779.34
1699566834.583509,239.83,1790.97
1699566834.6578698,243.02,1798.76
1699566834.7280216,260.32,1820.45
1699566834.7994602,247.34,1800.65
1699566834.8732011,231.09,1776.42
1699566834.9427843,230.62,1791.43
1699566835.0156674,228.74,1801.77
1699566835.0868988,250.20,1816.93
1699566835.1619577,236.55,1798.64
1699566835.230984,230.73,1773.98
1699566835.3034453,223.88,1794.32
1699566835.3755507,230.46,1798.54
1699566835.447275,252.34,1818.63
1699566835.519702,242.00,1799.91
1699566835.5932662,231.72,1776.61
1699566835.6639102,227.16,1796.98
1699566835.735504,227.06,1799.97
1699566835.8094988,249.13,1821.06
1699566835.8794115,244.13,1802.44
1699566835.9514916,230.10,1782.52
1699566836.0230532,225.80,1800.13
1699566836.095148,236.33,1799.94
1699566836.1676702,294.26,1818.10
1699566836.238993,280.82,1801.83
1699566836.3113978,254.79,1789.20
1699566836.3838134,251.92,1811.66
1699566836.4552617,250.55,1800.40
1699566836.5276866,257.37,1816.20
1699566836.6000361,249.70,1800.07
1699566836.671691,231.79,1794.70
1699566836.7453945,230.89,1816.76
1699566836.8149853,227.79,1798.94
1699566836.8876262,238.38,1815.47
1699566836.9608033,235.78,1798.01
1699566837.0313675,220.45,1798.34
1699566837.1029677,214.30,1818.75
1699566837.1750135,210.01,1798.42
1699566837.2469997,207.95,1819.67
1699566837.319779,215.90,1799.12
1699566837.3916018,212.17,1799.45
1699566837.4640708,206.31,1818.44
1699566837.5357897,211.18,1797.48
1699566837.6073186,218.46,1818.71
1699566837.6799865,219.70,1798.37
1699566837.7509773,217.86,1797.35
1699566837.8229778,214.21,1817.29
1699566837.8957975,211.21,1797.01
1699566837.967754,218.10,1821.14
1699566838.040202,215.79,1799.17
1699566838.1120071,217.28,1797.31
1699566838.184031,214.54,1816.96
1699566838.2551875,207.37,1800.35
1699566838.3279967,212.61,1820.93
1699566838.399975,216.77,1802.58
1699566838.471822,209.31,1800.51
1699566838.5434687,203.75,1819.70
1699566838.6162615,186.01,1799.14
1699566838.687827,177.42,1817.29
1699566838.762518,178.76,1797.43
1699566838.8314128,185.31,1800.37
1699566838.903705,188.40,1820.31
1699566838.9775012,190.58,1798.51
1699566839.0481222,205.32,1821.98
1699566839.1197686,201.09,1798.82
1699566839.1916661,200.47,1799.65
1699566839.2638545,188.91,1820.87
1699566839.3355694,178.83,1799.32
1699566839.4071941,180.71,1818.71
1699566839.4812543,174.18,1799.02
1699566839.552118,182.48,1800.94
1699566839.6241956,189.85,1816.41
1699566839.695641,182.58,1798.98
1699566839.7672095,184.51,1817.85
1699566839.8389704,181.12,1798.06
1699566839.9110575,179.32,1798.55
1699566839.9832916,180.68,1820.90
1699566840.0550146,169.62,1798.51
1699566840.1277432,185.72,1820.57
1699566840.199358,183.01,1797.74
1699566840.271873,198.46,1797.22
1699566840.34253,207.97,1820.67
1699566840.41555,212.63,1800.50
1699566840.4878469,246.49,1819.31
1699566840.5624228,250.33,1801.78
1699566840.6310775,245.82,1797.76
1699566840.704062,225.26,1818.57
1699566840.7758267,208.56,1801.07
1699566840.8475077,193.18,1820.06
1699566840.9191785,166.59,1800.82
1699566840.9916065,173.76,1801.41
1699566841.063531,184.90,1821.61
1699566841.1357243,179.66,1803.22
1699566841.2080364,184.49,1821.77
1699566841.2794733,185.55,1799.32
1699566841.351615,184.58,1799.37
1699566841.4237564,195.13,1819.07
1699566841.49673,177.33,1800.43
1699566841.5673418,183.76,1822.74
1699566841.6397016,180.42,1800.50
1699566841.7138984,193.44,1799.39
1699566841.7823632,211.53,1816.50
1699566841.8560648,208.53,1797.68
1699566841.9273102,226.68,1814.16
1699566841.9988832,235.48,1801.97
1699566842.071745,235.93,1797.60
1699566842.1425426,245.88,1820.83
1699566842.2156396,219.56,1799.98
1699566842.287288,215.66,1807.08
1699566842.3596618,204.60,1798.10
1699566842.4318867,207.33,1798.95
1699566842.5032804,216.52,1817.22
1699566842.5751715,198.30,1801.66
1699566842.6473367,196.01,1801.82
1699566842.7195694,185.70,1795.40
1699566842.7912762,187.15,1799.38
1699566842.8649342,193.20,1815.53
1699566842.935419,180.81,1799.13
1699566843.0078154,178.36,1793.27
1699566843.0817304,172.99,1789.43
1699566843.1516402,179.89,1797.82
1699566843.2233381,190.64,1820.10
1699566843.295108,180.93,1800.59
1699566843.3670318,188.90,1788.62
1699566843.4397995,182.80,1785.86
1699566843.5122066,186.63,1799.92
1699566843.5834844,196.84,1819.00
1699566843.6556287,186.78,1800.68
1699566843.7271907,188.76,1785.01
1699566843.8008354,192.29,1788.06
1699566843.8717067,186.48,1800.89
1699566843.943988,192.09,1817.47
1699566844.0157757,190.99,1803.40
1699566844.0868402,190.17,1780.74
1699566844.159337,183.51,1789.91
1699566844.2321417,185.94,1799.02
1699566844.3030443,199.07,1820.38
1699566844.375147,193.75,1800.78
1699566844.449099,194.57,1777.03
1699566844.5194454,191.17,1792.12
1699566844.5913715,192.61,1800.46
1699566844.6630318,197.39,1821.89
1699566844.7348247,199.02,1801.33
1699566844.8079658,194.08,1773.77
1699566844.879811,196.25,1791.26
1699566844.9510326,200.67,1796.44
1699566845.0233002,210.36,1821.81
1699566845.0957274,212.06,1797.46
1699566845.1677403,205.49,1773.05
1699566845.2392995,200.66,1795.96
1699566845.3116317,203.38,1798.60
1699566845.3840153,209.84,1822.07
1699566845.4552581,208.42,1799.90
1699566845.5274556,204.89,1778.07
1699566845.6018145,197.27,1796.81
1699566845.6711338,199.22,1800.50
1699566845.744006,210.82,1818.54
1699566845.8161948,211.70,1800.75
1699566845.8867319,207.52,1780.17
1699566845.9590638,193.08,1800.81
1699566846.0325792,193.50,1799.52
1699566846.103497,227.74,1817.98
1699566846.1758802,198.46,1801.04
1699566846.2481089,200.10,1787.58
1699566846.3197756,185.49,1809.69
1699566846.3918734,199.30,1801.04
1699566846.4636722,190.39,1818.33
1699566846.5351884,194.14,1799.48
1699566846.6068432,185.15,1789.36
1699566846.6790287,180.23,1810.59
1699566846.7520988,177.13,1797.86
1699566846.8230898,178.46,1820.68
1699566846.8960423,177.72,1797.14
1699566846.9678035,186.31,1797.03
1699566847.0397658,182.01,1819.39
1699566847.111145,175.96,1797.90
1699566847.1838932,176.97,1816.43
1699566847.255107,179.79,1799.33
1699566847.3274908,185.86,1799.45
1699566847.3993502,186.95,1817.08
1699566847.471676,178.42,1797.36
1699566847.5424385,178.31,1818.79
1699566847.6172514,177.37,1799.82
1699566847.6873403,188.19,1798.93
1699566847.759246,189.17,1818.42
1699566847.8316207,182.77,1798.50
1699566847.9034007,182.61,1822.58
1699566847.9757283,187.80,1798.77
1699566848.0469902,188.28,1796.62
1699566848.1190746,186.61,1819.92
1699566848.1918359,176.99,1800.70
1699566848.2636764,175.71,1822.08
1699566848.3364124,179.78,1799.82
1699566848.4072654,191.66,1800.81
1699566848.479602,185.93,1819.19
1699566848.5519001,182.13,1798.46
1699566848.6235056,185.40,1823.13
1699566848.6950758,181.20,1797.87
1699566848.766933,188.62,1798.99
1699566848.8391476,193.44,1820.02
1699566848.9112623,188.04,1796.68
1699566848.985924,183.38,1819.80
1699566849.056018,185.12,1800.32
1699566849.1276608,192.48,1798.76
1699566849.199522,197.05,1818.76
1699566849.2708876,183.22,1798.62
1699566849.3424454,191.85,1818.01
1699566849.4150267,189.08,1799.42
1699566849.489311,199.52,1797.99
1699566849.559091,206.04,1819.26
1699566849.6313753,188.37,1800.22
1699566849.7042727,194.97,1819.53
1699566849.7762656,191.55,1800.52
1699566849.8474395,197.09,1798.48
1699566849.919824,196.31,1820.07
1699566849.991737,189.86,1798.71
1699566850.063057,198.69,1821.23
1699566850.1356897,189.75,1799.14
1699566850.2070482,193.48,1800.30
1699566850.2797487,199.46,1819.78
1699566850.3513544,193.98,1797.79
1699566850.4231105,187.61,1813.06
1699566850.4959493,191.15,1796.11
1699566850.5693345,196.30,1798.42
1699566850.6390843,199.32,1819.89
1699566850.7119799,187.79,1797.25
1699566850.7832885,192.28,1817.04
1699566850.8555942,168.39,1800.43
1699566850.9273298,205.49,1797.88
1699566850.9991052,197.27,1819.56
1699566851.0731857,189.71,1801.72
1699566851.142576,202.09,1821.56
